0	0
16	36
33	109
50	257
66	481
83	780
100	1154
116	1530
133	1906
150	2206
166	2431
183	2578
200	2651
216	2686
233	2684
250	2684
266	2686
283	2693
300	2702
316	2713
333	2727
350	2742
366	2757
383	2772
400	2786
416	2799
433	2809
450	2816
466	2821
483	2821
500	2818
516	2811
533	2800
550	2786
566	2768
583	2748
600	2726
616	2703
633	2679
650	2656
666	2634
683	2614
700	2597
716	2581
733	2569
750	2558
766	2550
783	2543
800	2536
816	2530
833	2525
850	2520
866	2515
883	2511
900	2507
916	2504
933	2502
950	2502
966	2502
983	2504
1000	2507
1016	2510
1033	2513
1050	2517
1066	2520
1083	2524
1100	2528
1116	2532
1133	2536
1150	2540
1166	2544
1183	2548
1200	2551
1216	2554
1233	2556
1250	2557
1266	2559
1283	2560
1300	2561
1316	2562
1333	2563
1350	2564
1366	2565
1383	2567
1400	2569
1416	2571
1433	2574
1450	2578
1466	2582
1483	2586
1500	2590
1516	2595
1533	2600
1550	2605
1566	2610
1583	2615
1600	2620
1616	2625
1633	2631
1650	2638
1666	2644
1683	2651
1700	2659
1716	2666
1733	2672
1750	2678
1766	2682
1783	2686
1800	2689
1816	2691
1833	2693
1850	2696
1866	2698
1883	2701
1900	2705
1916	2709
1933	2714
1950	2718
1966	2722
1983	2726
2000	2729
2016	2731
2033	2733
2050	2733
2066	2733
2083	2733
2100	2732
2116	2732
2133	2732
2150	2732
2166	2733
2183	2733
2200	2734
2216	2734
2233	2735
2250	2736
2266	2738
2283	2741
2300	2745
2316	2750
2333	2756
2350	2762
2366	2769
2383	2774
2400	2778
2416	2779
2433	2778
2450	2775
2466	2768
2483	2759
2500	2748
2516	2736
2533	2722
2550	2709
2566	2697
2583	2687
2600	2678
2616	2671
2633	2666
2650	2663
2666	2661
2683	2660
2700	2659
2716	2659
2733	2659
2750	2659
2766	2660
2783	2661
2800	2663
2816	2669
2833	2678
2850	2693
2866	2716
2883	2745
2900	2779
2916	2816
2933	2851
2950	2879
2966	2895
2983	2898
3000	2885
3016	2858
3033	2822
3050	2781
3066	2740
3083	2702
3100	2672
3116	2650
3133	2636
3150	2627
3166	2623
3183	2621
3200	2620
3216	2618
3233	2617
3250	2615
3266	2612
3283	2609
3300	2606
3316	2603
3333	2600
3350	2598
3366	2596
3383	2593
3400	2591
3416	2588
3433	2585
3450	2582
3466	2579
3483	2577
3500	2577
3516	2578
3533	2582
3550	2589
3566	2597
3583	2608
3600	2619
3616	2631
3633	2644
3650	2655
3666	2666
3683	2675
3700	2683
3716	2690
3733	2696
3750	2700
3766	2704
3783	2706
3800	2706
3816	2706
3833	2704
3850	2700
3866	2693
3883	2685
3900	2673
3916	2659
3933	2643
3950	2625
3966	2607
3983	2588
4000	2570
4016	2553
4033	2539
4050	2527
4066	2517
4083	2509
4100	2504
4116	2499
4133	2496
4150	2493
4166	2491
4183	2488
4200	2486
4216	2484
4233	2481
4250	2480
4266	2478
4283	2477
4300	2476
4316	2476
4333	2475
4350	2474
4366	2472
4383	2470
4400	2468
4416	2464
4433	2461
4450	2457
4466	2453
4483	2449
4500	2446
4516	2444
4533	2442
4550	2442
4566	2441
4583	2442
4600	2443
4616	2444
4633	2445
4650	2448
4666	2450
4683	2453
4700	2457
4716	2462
4733	2467
4750	2472
4766	2477
4783	2482
4800	2487
4816	2491
4833	2494
4850	2497
4866	2499
4883	2500
4900	2500
4916	2500
4933	2501
4950	2501
4966	2502
4983	2504
5000	2506
5016	2509
5033	2512
5050	2514
5066	2517
5083	2519
5100	2521
5116	2523
5133	2524
5150	2526
5166	2528
5183	2531
5200	2534
5216	2538
5233	2542
5250	2546
5266	2550
5283	2554
5300	2558
5316	2561
5333	2563
5350	2565
5366	2565
5383	2564
5400	2561
5416	2558
5433	2555
5450	2552
5466	2549
5483	2548
5500	2547
5516	2548
5533	2550
5550	2554
5566	2560
5583	2567
5600	2576
5616	2588
5633	2601
5650	2616
5666	2631
5683	2647
5700	2662
5716	2675
5733	2685
5750	2691
5766	2694
5783	2692
5800	2686
5816	2677
5833	2665
5850	2651
5866	2637
5883	2623
5900	2610
5916	2600
5933	2593
5950	2589
5966	2588
5983	2588
6000	2590
6016	2593
6033	2595
6050	2597
6066	2598
6083	2599
6100	2600
6116	2601
6133	2604
6150	2612
6166	2627
6183	2652
6200	2687
6216	2733
6233	2787
6250	2844
6266	2897
6283	2939
6300	2963
6316	2964
6333	2941
6350	2897
6366	2837
6383	2770
6400	2703
6416	2643
6433	2596
6450	2561
6466	2539
6483	2529
6500	2526
6516	2529
6533	2535
6550	2542
6566	2550
6583	2558
6600	2564
6616	2571
6633	2577
6650	2582
6666	2586
6683	2590
6700	2593
6716	2596
6733	2598
6750	2601
6766	2604
6783	2606
6800	2610
6816	2614
6833	2619
6850	2626
6866	2635
6883	2647
6900	2660
6916	2676
6933	2693
6950	2711
6966	2729
6983	2748
7000	2766
7016	2783
7033	2800
7050	2815
7066	2829
7083	2841
7100	2850
7116	2857
7133	2862
7150	2864
7166	2863
7183	2860
7200	2855
7216	2847
7233	2838
7250	2827
7266	2814
7283	2800
7300	2785
7316	2769
7333	2753
7350	2737
7366	2722
7383	2708
7400	2696
7416	2687
7433	2680
7450	2676
7466	2674
7483	2674
7500	2675
7516	2676
7533	2678
7550	2680
7566	2682
7583	2683
7600	2684
7616	2685
7633	2686
7650	2687
7666	2687
7683	2688
7700	2689
7716	2690
7733	2690
7750	2691
7766	2691
7783	2691
7800	2690
7816	2689
7833	2687
7850	2684
7866	2682
7883	2678
7900	2675
7916	2671
7933	2667
7950	2663
7966	2659
7983	2654
8000	2651
8016	2648
8033	2645
8050	2644
8066	2643
8083	2643
8100	2644
8116	2644
8133	2644
8150	2643
8166	2641
8183	2639
8200	2636
8216	2634
8233	2631
8250	2629
8266	2627
8283	2626
8300	2624
8316	2624
8333	2623
8350	2622
8366	2620
8383	2619
8400	2617
8416	2614
8433	2612
8450	2609
8466	2607
8483	2605
8500	2603
8516	2603
8533	2603
8550	2603
8566	2605
8583	2606
8600	2608
8616	2610
8633	2612
8650	2613
8666	2615
8683	2616
8700	2618
8716	2620
8733	2622
8750	2623
8766	2624
8783	2625
8800	2625
8816	2624
8833	2623
8850	2621
8866	2619
8883	2618
8900	2618
8916	2618
8933	2620
8950	2623
8966	2628
8983	2634
9000	2640
9016	2647
9033	2653
9050	2658
9066	2662
9083	2663
9100	2661
9116	2657
9133	2650
9150	2640
9166	2628
9183	2616
9200	2603
9216	2590
9233	2579
9250	2568
9266	2559
9283	2551
9300	2545
9316	2539
9333	2534
9350	2529
9366	2525
9383	2521
9400	2517
9416	2513
9433	2510
9450	2508
9466	2508
9483	2511
9500	2520
9516	2535
9533	2559
9550	2591
9566	2628
9583	2668
9600	2705
9616	2734
9633	2751
9650	2752
9666	2738
9683	2709
9700	2670
9716	2627
9733	2584
9750	2546
9766	2515
9783	2493
9800	2478
9816	2469
9833	2464
9850	2460
9866	2458
9883	2456
9900	2454
9916	2452
9933	2451
9950	2451
9966	2452
9983	2454
10000	2457
10016	2461
10033	2464
10050	2468
10066	2472
10083	2475
10100	2479
10116	2483
10133	2488
10150	2494
10166	2502
10183	2512
10200	2523
10216	2536
10233	2550
10250	2565
10266	2580
10283	2596
10300	2611
10316	2626
10333	2640
10350	2653
10366	2664
10383	2675
10400	2683
10416	2691
10433	2697
10450	2701
10466	2703
10483	2704
10500	2702
10516	2697
10533	2690
10550	2680
10566	2668
10583	2654
10600	2638
10616	2620
10633	2601
10650	2582
10666	2564
10683	2547
10700	2531
10716	2518
10733	2508
10750	2501
10766	2497
10783	2495
10800	2495
10816	2496
10833	2497
10850	2498
10866	2500
10883	2501
10900	2501
10916	2501
10933	2500
10950	2499
10966	2498
10983	2497
11000	2497
11016	2498
11033	2499
11050	2501
11066	2504
11083	2507
11100	2511
11116	2514
11133	2517
11150	2520
11166	2523
11183	2526
11200	2529
11216	2532
11233	2536
11250	2541
11266	2546
11283	2551
11300	2557
11316	2564
11333	2571
11350	2577
11366	2583
11383	2588
11400	2592
11416	2595
11433	2597
11450	2598
11466	2597
11483	2596
11500	2594
11516	2592
11533	2590
11550	2589
11566	2587
11583	2586
11600	2584
11616	2582
11633	2579
11650	2577
11666	2575
11683	2574
11700	2573
11716	2573
11733	2574
11750	2576
11766	2577
11783	2578
11800	2580
11816	2580
11833	2581
11850	2581
11866	2581
11883	2582
11900	2582
11916	2583
11933	2584
11950	2586
11966	2587
11983	2589
12000	2590
12016	2591
12033	2592
12050	2593
12066	2593
12083	2593
12100	2593
12116	2593
12133	2593
12150	2593
12166	2594
12183	2596
12200	2599
12216	2604
12233	2610
12250	2619
12266	2630
12283	2643
12300	2658
12316	2676
12333	2694
12350	2713
12366	2731
12383	2746
12400	2758
12416	2766
12433	2770
12450	2770
12466	2766
12483	2760
12500	2753
12516	2745
12533	2737
12550	2730
12566	2724
12583	2718
12600	2714
12616	2711
12633	2708
12650	2707
12666	2706
12683	2706
12700	2707
12716	2709
12733	2712
12750	2715
12766	2718
12783	2723
12800	2729
12816	2738
12833	2751
12850	2769
12866	2794
12883	2825
12900	2859
12916	2892
12933	2922
12950	2943
12966	2951
12983	2946
13000	2927
13016	2896
13033	2859
13050	2818
13066	2780
13083	2747
13100	2721
13116	2703
13133	2691
13150	2684
13166	2681
13183	2680
13200	2680
13216	2680
13233	2681
13250	2681
13266	2682
13283	2682
13300	2682
13316	2683
13333	2683
13350	2683
13366	2683
13383	2683
13400	2683
13416	2683
13433	2684
13450	2685
13466	2686
13483	2689
13500	2693
13516	2698
13533	2704
13550	2711
13566	2719
13583	2727
13600	2736
13616	2744
13633	2752
13650	2759
13666	2765
13683	2770
13700	2774
13716	2778
13733	2780
13750	2782
13766	2783
13783	2783
13800	2781
13816	2778
13833	2772
13850	2765
13866	2757
13883	2746
13900	2734
13916	2720
13933	2706
13950	2691
13966	2675
13983	2660
14000	2645
14016	2631
14033	2617
14050	2605
14066	2594
14083	2584
14100	2576
14116	2569
14133	2563
14150	2559
14166	2555
14183	2553
14200	2551
14216	2550
14233	2549
14250	2548
14266	2547
14283	2547
14300	2546
14316	2546
14333	2545
14350	2544
14366	2543
14383	2541
14400	2540
14416	2540
14433	2540
14450	2540
14466	2542
14483	2544
14500	2546
14516	2548
14533	2549
14550	2550
14566	2551
14583	2551
14600	2550
14616	2549
14633	2548
14650	2547
14666	2546
14683	2545
14700	2545
14716	2544
14733	2543
14750	2541
14766	2539
14783	2537
14800	2535
14816	2533
14833	2531
14850	2529
14866	2527
14883	2525
14900	2523
14916	2521
14933	2520
14950	2519
14966	2518
14983	2517
15000	2517
15016	2516
15033	2516
15050	2514
15066	2513
15083	2511
15100	2509
15116	2507
15133	2505
15150	2503
15166	2502
15183	2501
15200	2501
15216	2501
15233	2501
15250	2502
15266	2502
15283	2503
15300	2502
15316	2502
15333	2501
15350	2501
15366	2500
15383	2500
15400	2500
15416	2501
15433	2502
15450	2503
15466	2505
15483	2505
15500	2506
15516	2507
15533	2507
15550	2508
15566	2510
15583	2513
15600	2517
15616	2524
15633	2533
15650	2544
15666	2558
15683	2571
15700	2585
15716	2596
15733	2605
15750	2610
15766	2611
15783	2609
15800	2604
15816	2596
15833	2588
15850	2579
15866	2571
15883	2565
15900	2560
15916	2556
15933	2554
15950	2553
15966	2552
15983	2552
16000	2552
16016	2552
16033	2552
16050	2552
16066	2552
16083	2552
16100	2553
16116	2555
16133	2561
16150	2570
16166	2586
16183	2609
16200	2642
16216	2684
16233	2730
16250	2778
16266	2821
16283	2853
16300	2868
16316	2865
16333	2843
16350	2805
16366	2756
16383	2704
16400	2654
16416	2609
16433	2575
16450	2550
16466	2533
16483	2524
16500	2520
16516	2519
16533	2519
16550	2519
16566	2520
16583	2520
16600	2521
16616	2522
16633	2522
16650	2523
16666	2523
16683	2523
16700	2521
16716	2520
16733	2518
16750	2517
16766	2516
16783	2518
16800	2522
16816	2529
16833	2540
16850	2554
16866	2572
16883	2592
16900	2614
16916	2637
16933	2661
16950	2685
16966	2708
16983	2730
17000	2751
17016	2772
17033	2790
17050	2807
17066	2822
17083	2834
17100	2842
17116	2846
17133	2846
17150	2842
17166	2834
17183	2822
17200	2806
17216	2787
17233	2765
17250	2740
17266	2712
17283	2684
17300	2655
17316	2627
17333	2601
17350	2578
17366	2558
17383	2541
17400	2529
17416	2520
17433	2514
17450	2511
17466	2510
17483	2511
17500	2514
17516	2518
17533	2523
17550	2529
17566	2535
17583	2541
17600	2547
17616	2554
17633	2560
17650	2566
17666	2572
17683	2578
17700	2583
17716	2588
17733	2593
17750	2597
17766	2600
17783	2603
17800	2606
17816	2608
17833	2609
17850	2611
17866	2612
17883	2613
17900	2615
17916	2616
17933	2619
17950	2622
17966	2625
17983	2630
18000	2635
18016	2642
18033	2648
18050	2654
18066	2660
18083	2665
18100	2669
18116	2673
18133	2676
18150	2679
18166	2681
18183	2683
18200	2685
18216	2688
18233	2690
18250	2693
18266	2697
18283	2700
18300	2704
18316	2707
18333	2711
18350	2713
18366	2715
18383	2715
18400	2715
18416	2715
18433	2713
18450	2712
18466	2710
18483	2708
18500	2706
18516	2704
18533	2702
18550	2700
18566	2698
18583	2696
18600	2694
18616	2692
18633	2691
18650	2690
18666	2690
18683	2690
18700	2690
18716	2691
18733	2691
18750	2690
18766	2690
18783	2689
18800	2688
18816	2687
18833	2686
18850	2686
18866	2687
18883	2689
18900	2691
18916	2696
18933	2701
18950	2707
18966	2715
18983	2723
19000	2730
19016	2737
19033	2743
19050	2747
19066	2749
19083	2749
19100	2746
19116	2742
19133	2735
19150	2727
19166	2718
19183	2708
19200	2699
19216	2690
19233	2683
19250	2676
19266	2671
19283	2667
19300	2663
19316	2660
19333	2658
19350	2655
19366	2653
19383	2651
19400	2649
19416	2647
19433	2645
19450	2645
19466	2648
19483	2653
19500	2664
19516	2681
19533	2704
19550	2733
19566	2765
19583	2797
19600	2825
19616	2844
19633	2851
19650	2844
19666	2823
19683	2792
19700	2753
19716	2713
19733	2675
19750	2642
19766	2615
19783	2596
19800	2583
19816	2575
19833	2569
19850	2566
19866	2563
19883	2561
19900	2558
19916	2556
19933	2555
19950	2553
19966	2551
19983	2550
20000	2548
20016	2547
20033	2545
20050	2544
20066	2544
20083	2544
20100	2545
20116	2547
20133	2550
20150	2553
20166	2557
20183	2563
20200	2569
20216	2575
20233	2583
20250	2592
20266	2601
20283	2610
20300	2619
20316	2629
20333	2638
20350	2646
20366	2654
20383	2660
20400	2665
20416	2669
20433	2670
20450	2670
20466	2668
20483	2664
20500	2659
20516	2651
20533	2642
20550	2631
20566	2618
20583	2604
20600	2589
20616	2573
20633	2556
20650	2540
20666	2524
20683	2509
20700	2496
20716	2485
20733	2476
20750	2469
20766	2464
20783	2461
20800	2460
20816	2459
20833	2460
20850	2460
20866	2460
20883	2460
20900	2458
20916	2457
20933	2454
20950	2452
20966	2449
20983	2447
21000	2445
21016	2443
21033	2442
21050	2443
21066	2444
21083	2446
21100	2448
21116	2452
21133	2456
21150	2460
21166	2465
21183	2469
21200	2473
21216	2477
21233	2479
21250	2480
21266	2481
21283	2481
21300	2480
21316	2480
21333	2481
21350	2482
21366	2483
21383	2485
21400	2488
21416	2491
21433	2494
21450	2497
21466	2499
21483	2501
21500	2504
21516	2506
21533	2508
21550	2510
21566	2514
21583	2518
21600	2523
21616	2528
21633	2534
21650	2540
21666	2546
21683	2552
21700	2558
21716	2563
21733	2568
21750	2571
21766	2574
21783	2576
21800	2578
21816	2580
21833	2582
21850	2584
21866	2587
21883	2589
21900	2592
21916	2594
21933	2595
21950	2596
21966	2596
21983	2596
22000	2596
22016	2595
22033	2594
22050	2592
22066	2590
22083	2586
22100	2582
22116	2578
22133	2574
22150	2570
22166	2567
22183	2566
22200	2567
22216	2569
22233	2573
22250	2580
22266	2589
22283	2601
22300	2615
22316	2630
22333	2647
22350	2662
22366	2676
22383	2688
22400	2696
22416	2701
22433	2701
22450	2697
22466	2690
22483	2679
22500	2667
22516	2653
22533	2639
22550	2626
22566	2615
22583	2606
22600	2599
22616	2595
22633	2593
22650	2593
22666	2593
22683	2594
22700	2594
22716	2593
22733	2592
22750	2591
22766	2591
22783	2593
22800	2599
22816	2612
22833	2635
22850	2670
22866	2717
22883	2773
22900	2835
22916	2896
22933	2949
22950	2985
22966	2999
22983	2989
23000	2955
23016	2903
23033	2839
23050	2773
23066	2710
23083	2657
23100	2617
23116	2590
23133	2574
23150	2568
23166	2567
23183	2570
23200	2575
23216	2580
23233	2586
23250	2591
23266	2595
23283	2599
23300	2602
23316	2605
23333	2606
23350	2607
23366	2607
23383	2608
23400	2608
23416	2609
23433	2611
23450	2613
23466	2617
23483	2623
23500	2630
23516	2639
23533	2651
23550	2665
23566	2682
23583	2701
23600	2721
23616	2741
23633	2762
23650	2782
23666	2799
23683	2814
23700	2827
23716	2838
23733	2846
23750	2851
23766	2855
23783	2857
23800	2858
23816	2857
23833	2854
23850	2850
23866	2843
23883	2835
23900	2825
23916	2813
23933	2799
23950	2783
23966	2766
23983	2749
24000	2731
24016	2715
24033	2700
24050	2687
24066	2677
24083	2670
24100	2665
24116	2662
24133	2661
24150	2660
24166	2660
24183	2660
24200	2659
24216	2658
24233	2657
24250	2656
24266	2656
24283	2656
24300	2656
24316	2657
24333	2658
24350	2659
24366	2660
24383	2661
24400	2662
24416	2663
24433	2663
24450	2663
24466	2663
24483	2663
24500	2663
24516	2663
24533	2663
24550	2663
24566	2663
24583	2663
24600	2663
24616	2662
24633	2661
24650	2660
24666	2657
24683	2655
24700	2652
24716	2650
24733	2648
24750	2646
24766	2644
24783	2643
24800	2642
24816	2641
24833	2640
24850	2639
24866	2637
24883	2635
24900	2633
24916	2631
24933	2629
24950	2626
24966	2624
24983	2622
25000	2620
25016	2618
25033	2617
25050	2617
25066	2618
25083	2619
25100	2619
25116	2620
25133	2619
25150	2618
25166	2616
25183	2613
25200	2610
25216	2607
25233	2604
25250	2603
25266	2602
25283	2602
25300	2603
25316	2605
25333	2606
25350	2607
25366	2608
25383	2609
25400	2608
25416	2607
25433	2606
25450	2605
25466	2603
25483	2603
25500	2603
25516	2603
25533	2605
25550	2608
25566	2611
25583	2615
25600	2619
25616	2623
25633	2627
25650	2632
25666	2636
25683	2639
25700	2642
25716	2645
25733	2646
25750	2646
25766	2644
25783	2640
25800	2633
25816	2625
25833	2615
25850	2604
25866	2593
25883	2582
25900	2573
25916	2564
25933	2558
25950	2553
25966	2550
25983	2549
26000	2548
26016	2547
26033	2547
26050	2546
26066	2544
26083	2542
26100	2539
26116	2537
26133	2537
26150	2540
26166	2549
26183	2566
26200	2592
26216	2626
26233	2664
26250	2704
26266	2738
26283	2761
26300	2770
26316	2762
26333	2738
26350	2701
26366	2656
26383	2610
26400	2566
26416	2529
26433	2501
26450	2481
26466	2469
26483	2463
26500	2460
26516	2459
26533	2459
26550	2460
26566	2459
26583	2459
26600	2458
26616	2456
26633	2455
26650	2454
26666	2453
26683	2452
26700	2453
26716	2454
26733	2455
26750	2458
26766	2462
26783	2466
26800	2471
26816	2477
26833	2485
26850	2494
26866	2505
26883	2518
26900	2533
26916	2549
26933	2567
26950	2585
26966	2603
26983	2621
27000	2638
27016	2653
27033	2666
27050	2678
27066	2686
27083	2692
27100	2696
27116	2698
27133	2697
27150	2695
27166	2692
27183	2686
27200	2679
27216	2670
27233	2658
27250	2644
27266	2628
27283	2610
27300	2591
27316	2571
27333	2551
27350	2533
27366	2517
27383	2505
27400	2498
27416	2494
27433	2494
27450	2496
27466	2500
27483	2506
27500	2510
27516	2514
27533	2516
27550	2517
27566	2517
27583	2517
27600	2516
27616	2515
27633	2515
27650	2515
27666	2516
27683	2517
27700	2518
27716	2520
27733	2522
27750	2525
27766	2527
27783	2529
27800	2530
27816	2531
27833	2532
27850	2533
27866	2533
27883	2534
27900	2535
27916	2536
27933	2538
27950	2540
27966	2542
27983	2545
28000	2546
28016	2548
28033	2549
28050	2550
28066	2551
28083	2551
28100	2552
28116	2553
28133	2555
28150	2557
28166	2559
28183	2561
28200	2562
28216	2562
28233	2562
28250	2561
28266	2559
28283	2557
28300	2555
28316	2553
28333	2552
28350	2552
28366	2553
28383	2555
28400	2558
28416	2560
28433	2563
28450	2565
28466	2566
28483	2566
28500	2566
28516	2565
28533	2565
28550	2565
28566	2566
28583	2568
28600	2571
28616	2575
28633	2580
28650	2585
28666	2591
28683	2596
28700	2601
28716	2605
28733	2608
28750	2610
28766	2611
28783	2611
28800	2611
28816	2611
28833	2612
28850	2613
28866	2616
28883	2620
28900	2625
28916	2632
28933	2640
28950	2649
28966	2660
28983	2672
29000	2684
29016	2697
29033	2709
29050	2720
29066	2728
29083	2734
29100	2736
29116	2736
29133	2733
29150	2728
29166	2722
29183	2714
29200	2706
29216	2698
29233	2691
29250	2686
29266	2684
29283	2683
29300	2685
29316	2688
29333	2693
29350	2697
29366	2702
29383	2705
29400	2708
29416	2709
29433	2710
29450	2711
29466	2715
29483	2723
29500	2738
29516	2762
29533	2795
29550	2835
29566	2878
29583	2920
29600	2955
29616	2976
29633	2981
29650	2968
29666	2940
29683	2900
29700	2856
29716	2812
29733	2773
29750	2743
29766	2722
29783	2709
29800	2702
29816	2700
29833	2701
29850	2702
29866	2703
29883	2704
29900	2704
29916	2704
29933	2703
29950	2703
29966	2702
29983	2702
30000	2702
30016	2702
30033	2703
30050	2704
30066	2705
30083	2706
30100	2708
30116	2710
30133	2713
30150	2716
30166	2720
30183	2725
30200	2731
30216	2738
30233	2745
30250	2753
30266	2761
30283	2769
30300	2777
30316	2784
30333	2791
30350	2797
30366	2802
30383	2805
30400	2807
30416	2807
30433	2807
30450	2804
30466	2800
30483	2795
30500	2787
30516	2778
30533	2767
30550	2754
30566	2740
30583	2724
30600	2706
30616	2688
30633	2669
30650	2651
30666	2633
30683	2616
30700	2602
30716	2589
30733	2578
30750	2569
30766	2562
30783	2556
30800	2552
30816	2549
30833	2546
30850	2545
30866	2544
30883	2543
30900	2542
30916	2542
30933	2542
30950	2542
30966	2541
30983	2541
31000	2541
31016	2541
31033	2541
31050	2541
31066	2542
31083	2544
31100	2546
31116	2549
31133	2553
31150	2556
31166	2560
31183	2564
31200	2567
31216	2570
31233	2573
31250	2575
31266	2576
31283	2576
31300	2576
31316	2575
31333	2575
31350	2574
31366	2574
31383	2574
31400	2573
31416	2573
31433	2573
31450	2572
31466	2570
31483	2569
31500	2566
31516	2564
31533	2561
31550	2558
31566	2556
31583	2554
31600	2552
31616	2551
31633	2550
31650	2548
31666	2547
31683	2545
31700	2543
31716	2540
31733	2538
31750	2535
31766	2533
31783	2531
31800	2529
31816	2528
31833	2526
31850	2525
31866	2524
31883	2522
31900	2521
31916	2518
31933	2516
31950	2513
31966	2509
31983	2506
32000	2502
32016	2499
32033	2496
32050	2493
32066	2490
32083	2489
32100	2487
32116	2486
32133	2485
32150	2484
32166	2484
32183	2484
32200	2484
32216	2485
32233	2487
32250	2491
32266	2496
32283	2502
32300	2511
32316	2521
32333	2532
32350	2543
32366	2553
32383	2562
32400	2568
32416	2570
32433	2570
32450	2565
32466	2559
32483	2550
32500	2540
32516	2530
32533	2520
32550	2512
32566	2506
32583	2503
32600	2502
32616	2503
32633	2506
32650	2510
32666	2514
32683	2518
32700	2522
32716	2525
32733	2527
32750	2529
32766	2531
32783	2536
32800	2544
32816	2559
32833	2581
32850	2612
32866	2652
32883	2699
32900	2748
32916	2795
32933	2833
32950	2856
32966	2860
32983	2844
33000	2811
33016	2766
33033	2715
33050	2665
33066	2621
33083	2587
33100	2563
33116	2548
33133	2540
33150	2537
33166	2536
33183	2536
33200	2536
33216	2535
33233	2535
33250	2534
33266	2534
33283	2535
33300	2535
33316	2536
33333	2536
33350	2537
33366	2537
33383	2536
33400	2535
33416	2533
33433	2532
33450	2530
33466	2530
33483	2532
33500	2537
33516	2546
33533	2558
33550	2574
33566	2593
33583	2613
33600	2635
33616	2658
33633	2680
33650	2700
33666	2719
33683	2735
33700	2749
33716	2760
33733	2769
33750	2776
33766	2781
33783	2785
33800	2787
33816	2787
33833	2785
33850	2780
33866	2772
33883	2760
33900	2744
33916	2725
33933	2703
33950	2678
33966	2653
33983	2627
34000	2602
34016	2579
34033	2559
34050	2542
34066	2529
34083	2519
34100	2513
34116	2509
34133	2507
34150	2507
34166	2507
34183	2508
34200	2509
34216	2510
34233	2512
34250	2515
34266	2518
34283	2523
34300	2528
34316	2535
34333	2542
34350	2549
34366	2555
34383	2561
34400	2565
34416	2569
34433	2571
34450	2573
34466	2575
34483	2577
34500	2579
34516	2582
34533	2586
34550	2590
34566	2595
34583	2600
34600	2604
34616	2607
34633	2608
34650	2608
34666	2607
34683	2606
34700	2604
34716	2604
34733	2605
34750	2607
34766	2611
34783	2616
34800	2622
34816	2627
34833	2633
34850	2637
34866	2641
34883	2645
34900	2647
34916	2650
34933	2653
34950	2656
34966	2659
34983	2663
35000	2667
35016	2672
35033	2676
35050	2680
35066	2684
35083	2687
35100	2689
35116	2691
35133	2693
35150	2694
35166	2695
35183	2696
35200	2697
35216	2698
35233	2699
35250	2700
35266	2702
35283	2704
35300	2705
35316	2707
35333	2709
35350	2711
35366	2712
35383	2713
35400	2715
35416	2716
35433	2716
35450	2717
35466	2717
35483	2718
35500	2718
35516	2719
35533	2721
35550	2723
35566	2726
35583	2731
35600	2736
35616	2743
35633	2750
35650	2758
35666	2766
35683	2773
35700	2780
35716	2784
35733	2787
35750	2787
35766	2785
35783	2779
35800	2772
35816	2762
35833	2751
35850	2739
35866	2727
35883	2716
35900	2706
35916	2698
35933	2691
35950	2686
35966	2683
35983	2680
36000	2678
36016	2677
36033	2675
36050	2673
36066	2671
36083	2668
36100	2665
36116	2664
36133	2665
36150	2671
36166	2684
36183	2703
36200	2728
36216	2759
36233	2791
36250	2820
36266	2841
36283	2852
36300	2849
36316	2833
36333	2806
36350	2771
36366	2733
36383	2696
36400	2665
36416	2639
36433	2620
36450	2608
36466	2601
36483	2596
36500	2594
36516	2592
36533	2591
36550	2590
36566	2589
36583	2589
36600	2590
36616	2590
36633	2592
36650	2593
36666	2595
36683	2596
36700	2597
36716	2597
36733	2596
36750	2596
36766	2595
36783	2596
36800	2598
36816	2601
36833	2607
36850	2614
36866	2624
36883	2634
36900	2646
36916	2658
36933	2671
36950	2682
36966	2693
36983	2703
37000	2711
37016	2717
37033	2722
37050	2725
37066	2727
37083	2728
37100	2728
37116	2726
37133	2722
37150	2717
37166	2710
37183	2701
37200	2690
37216	2676
37233	2661
37250	2644
37266	2626
37283	2607
37300	2587
37316	2568
37333	2550
37350	2533
37366	2518
37383	2505
37400	2495
37416	2487
37433	2480
37450	2476
37466	2472
37483	2470
37500	2467
37516	2466
37533	2464
37550	2463
37566	2463
37583	2463
37600	2463
37616	2463
37633	2464
37650	2466
37666	2467
37683	2467
37700	2468
37716	2468
37733	2467
37750	2466
37766	2465
37783	2463
37800	2462
37816	2460
37833	2460
37850	2460
37866	2460
37883	2461
37900	2461
37916	2462
37933	2462
37950	2461
37966	2459
37983	2457
38000	2455
38016	2454
38033	2454
38050	2455
38066	2457
38083	2461
38100	2465
38116	2470
38133	2475
38150	2479
38166	2483
38183	2485
38200	2486
38216	2487
38233	2487
38250	2486
38266	2486
38283	2486
38300	2486
38316	2487
38333	2489
38350	2491
38366	2494
38383	2497
38400	2502
38416	2506
38433	2510
38450	2513
38466	2515
38483	2517
38500	2517
38516	2516
38533	2515
38550	2515
38566	2514
38583	2515
38600	2517
38616	2519
38633	2522
38650	2525
38666	2529
38683	2533
38700	2537
38716	2541
38733	2544
38750	2547
38766	2549
38783	2550
38800	2552
38816	2553
38833	2555
38850	2558
38866	2562
38883	2566
38900	2572
38916	2579
38933	2587
38950	2597
38966	2607
38983	2619
39000	2631
39016	2642
39033	2652
39050	2660
39066	2664
39083	2666
39100	2663
39116	2656
39133	2646
39150	2633
39166	2619
39183	2605
39200	2591
39216	2579
39233	2569
39250	2561
39266	2556
39283	2554
39300	2554
39316	2556
39333	2559
39350	2563
39366	2568
39383	2572
39400	2575
39416	2578
39433	2581
39450	2586
39466	2595
39483	2611
39500	2638
39516	2675
39533	2723
39550	2779
39566	2837
39583	2890
39600	2930
39616	2952
39633	2952
39650	2929
39666	2887
39683	2833
39700	2773
39716	2715
39733	2664
39750	2625
39766	2597
39783	2580
39800	2571
39816	2568
39833	2569
39850	2571
39866	2574
39883	2578
39900	2582
39916	2586
39933	2590
39950	2594
39966	2597
39983	2600
40000	2601
40016	2602
40033	2603
40050	2603
40066	2604
40083	2605
40100	2607
40116	2610
40133	2614
40150	2620
40166	2629
40183	2640
40200	2654
40216	2672
40233	2692
40250	2713
40266	2735
40283	2756
40300	2775
40316	2793
40333	2807
40350	2819
40366	2828
40383	2835
40400	2839
40416	2841
40433	2841
40450	2839
40466	2834
40483	2827
40500	2818
40516	2807
40533	2794
40550	2778
40566	2761
40583	2742
40600	2722
40616	2702
40633	2683
40650	2665
40666	2650
40683	2636
40700	2625
40716	2616
40733	2610
40750	2605
40766	2602
40783	2601
40800	2602
40816	2604
40833	2608
40850	2612
40866	2618
40883	2623
40900	2628
40916	2633
40933	2637
40950	2641
40966	2643
40983	2645
41000	2646
41016	2646
41033	2646
41050	2645
41066	2645
41083	2644
41100	2644
41116	2644
41133	2645
41150	2648
41166	2651
41183	2656
41200	2661
41216	2667
41233	2673
41250	2678
41266	2683
41283	2687
41300	2689
41316	2690
41333	2691
41350	2690
41366	2689
41383	2688
41400	2688
41416	2688
41433	2689
41450	2689
41466	2690
41483	2691
41500	2691
41516	2692
41533	2691
41550	2691
41566	2690
41583	2689
41600	2689
41616	2687
41633	2687
41650	2686
41666	2686
41683	2686
41700	2686
41716	2688
41733	2689
41750	2690
41766	2691
41783	2691
41800	2690
41816	2688
41833	2685
41850	2682
41866	2679
41883	2677
41900	2675
41916	2674
41933	2673
41950	2672
41966	2671
41983	2670
42000	2668
42016	2666
42033	2663
42050	2661
42066	2659
42083	2656
42100	2654
42116	2652
42133	2651
42150	2651
42166	2650
42183	2651
42200	2652
42216	2653
42233	2654
42250	2657
42266	2659
42283	2663
42300	2667
42316	2672
42333	2678
42350	2682
42366	2686
42383	2689
42400	2690
42416	2689
42433	2686
42450	2681
42466	2674
42483	2666
42500	2658
42516	2649
42533	2640
42550	2632
42566	2625
42583	2619
42600	2614
42616	2610
42633	2608
42650	2607
42666	2607
42683	2607
42700	2608
42716	2609
42733	2609
42750	2609
42766	2610
42783	2612
42800	2616
42816	2624
42833	2637
42850	2657
42866	2682
42883	2711
42900	2740
42916	2766
42933	2784
42950	2790
42966	2783
42983	2763
43000	2733
43016	2695
43033	2655
43050	2617
43066	2583
43083	2556
43100	2536
43116	2521
43133	2512
43150	2505
43166	2501
43183	2498
43200	2497
43216	2496
43233	2495
43250	2496
43266	2497
43283	2498
43300	2499
43316	2500
43333	2501
43350	2501
43366	2501
43383	2502
43400	2502
43416	2503
43433	2504
43450	2506
43466	2509
43483	2513
43500	2518
43516	2525
43533	2533
43550	2542
43566	2552
43583	2563
43600	2575
43616	2586
43633	2598
43650	2609
43666	2620
43683	2629
43700	2638
43716	2647
43733	2654
43750	2660
43766	2664
43783	2667
43800	2668
43816	2666
43833	2662
43850	2656
43866	2647
43883	2635
43900	2621
43916	2606
43933	2589
43950	2572
43966	2554
43983	2537
44000	2522
44016	2508
44033	2496
44050	2486
44066	2477
44083	2471
44100	2466
44116	2462
44133	2460
44150	2458
44166	2457
44183	2458
44200	2459
44216	2460
44233	2463
44250	2465
44266	2468
44283	2471
44300	2475
44316	2478
44333	2481
44350	2484
44366	2486
44383	2489
44400	2491
44416	2493
44433	2494
44450	2496
44466	2499
44483	2501
44500	2505
44516	2509
44533	2514
44550	2519
44566	2524
44583	2528
44600	2532
44616	2535
44633	2538
44650	2540
44666	2542
44683	2543
44700	2544
44716	2545
44733	2546
44750	2546
44766	2546
44783	2545
44800	2545
44816	2544
44833	2543
44850	2542
44866	2541
44883	2539
44900	2537
44916	2535
44933	2533
44950	2531
44966	2529
44983	2527
45000	2526
45016	2525
45033	2524
45050	2524
45066	2524
45083	2525
45100	2526
45116	2528
45133	2531
45150	2534
45166	2538
45183	2541
45200	2545
45216	2548
45233	2550
45250	2552
45266	2553
45283	2554
45300	2555
45316	2557
45333	2559
45350	2562
45366	2565
45383	2569
45400	2573
45416	2577
45433	2581
45450	2584
45466	2588
45483	2591
45500	2594
45516	2598
45533	2603
45550	2609
45566	2616
45583	2626
45600	2637
45616	2649
45633	2663
45650	2678
45666	2692
45683	2705
45700	2715
45716	2723
45733	2727
45750	2728
45766	2725
45783	2719
45800	2711
45816	2700
45833	2688
45850	2675
45866	2662
45883	2649
45900	2637
45916	2627
45933	2618
45950	2611
45966	2606
45983	2602
46000	2600
46016	2599
46033	2599
46050	2600
46066	2601
46083	2603
46100	2606
46116	2612
46133	2624
46150	2642
46166	2670
46183	2709
46200	2756
46216	2808
46233	2860
46250	2906
46266	2937
46283	2950
46300	2942
46316	2913
46333	2868
46350	2814
46366	2756
46383	2703
46400	2658
46416	2624
46433	2601
46450	2587
46466	2580
46483	2578
46500	2579
46516	2580
46533	2583
46550	2586
46566	2589
46583	2592
46600	2596
46616	2600
46633	2604
46650	2608
46666	2612
46683	2615
46700	2618
46716	2621
46733	2624
46750	2628
46766	2632
46783	2638
46800	2646
46816	2655
46833	2666
46850	2679
46866	2693
46883	2709
46900	2725
46916	2742
46933	2758
46950	2773
46966	2787
46983	2801
47000	2813
47016	2823
47033	2832
47050	2840
47066	2846
47083	2850
47100	2852
47116	2852
47133	2850
47150	2846
47166	2839
47183	2831
47200	2821
47216	2810
47233	2798
47250	2785
47266	2772
47283	2759
47300	2746
47316	2734
47333	2723
47350	2714
47366	2706
47383	2700
47400	2695
47416	2692
47433	2690
47450	2688
47466	2686
47483	2685
47500	2685
47516	2685
47533	2685
47550	2685
47566	2686
47583	2686
47600	2687
47616	2687
47633	2687
47650	2687
47666	2687
47683	2686
47700	2686
47716	2685
47733	2684
47750	2683
47766	2683
47783	2682
47800	2682
47816	2682
47833	2681
47850	2681
47866	2680
47883	2678
47900	2677
47916	2674
47933	2672
47950	2670
47966	2668
47983	2666
48000	2666
48016	2665
48033	2665
48050	2665
48066	2665
48083	2664
48100	2663
48116	2661
48133	2659
48150	2657
48166	2655
48183	2653
48200	2651
48216	2649
48233	2648
48250	2646
48266	2645
48283	2643
48300	2642
48316	2641
48333	2640
48350	2639
48366	2638
48383	2637
48400	2636
48416	2635
48433	2634
48450	2633
48466	2632
48483	2632
48500	2632
48516	2631
48533	2631
48550	2631
48566	2631
48583	2630
48600	2629
48616	2629
48633	2628
48650	2627
48666	2626
48683	2624
48700	2622
48716	2620
48733	2617
48750	2614
48766	2610
48783	2607
48800	2605
48816	2602
48833	2601
48850	2599
48866	2599
48883	2599
48900	2600
48916	2602
48933	2605
48950	2609
48966	2614
48983	2619
49000	2624
49016	2628
49033	2631
49050	2631
49066	2630
49083	2627
49100	2621
49116	2615
49133	2606
49150	2598
49166	2589
49183	2580
49200	2572
49216	2565
49233	2558
49250	2552
49266	2547
49283	2543
49300	2539
49316	2536
49333	2533
49350	2531
49366	2530
49383	2529
49400	2529
49416	2529
49433	2530
49450	2534
49466	2540
49483	2551
49500	2569
49516	2592
49533	2621
49550	2654
49566	2686
49583	2714
49600	2734
49616	2741
49633	2734
49650	2715
49666	2684
49683	2646
49700	2606
49716	2569
49733	2537
49750	2511
49766	2494
49783	2483
49800	2477
49816	2475
49833	2474
49850	2475
49866	2475
49883	2475
49900	2475
49916	2474
49933	2474
49950	2473
49966	2472
49983	2471
50000	2470
50016	2469
50033	2467
50050	2467
50066	2467
50083	2468
50100	2471
50116	2476
50133	2483
50150	2492
50166	2503
50183	2515
50200	2528
50216	2542
50233	2557
50250	2571
50266	2585
50283	2598
50300	2610
50316	2621
50333	2630
50350	2639
50366	2646
50383	2652
50400	2657
50416	2662
50433	2665
50450	2667
50466	2666
50483	2664
50500	2658
50516	2650
50533	2640
50550	2627
50566	2613
50583	2598
50600	2583
50616	2569
50633	2556
50650	2545
50666	2534
50683	2524
50700	2515
50716	2507
50733	2500
50750	2494
50766	2488
50783	2484
50800	2480
50816	2477
50833	2475
50850	2474
50866	2474
50883	2475
50900	2477
50916	2480
50933	2483
50950	2486
50966	2490
50983	2492
51000	2494
51016	2496
51033	2497
51050	2497
51066	2498
51083	2499
51100	2501
51116	2503
51133	2507
51150	2511
51166	2515
51183	2520
51200	2524
51216	2527
51233	2529
51250	2530
51266	2531
51283	2530
51300	2530
51316	2530
51333	2530
51350	2531
51366	2532
51383	2534
51400	2536
51416	2539
51433	2541
51450	2544
51466	2546
51483	2547
51500	2547
51516	2547
51533	2546
51550	2546
51566	2546
51583	2547
51600	2549
51616	2553
51633	2559
51650	2565
51666	2571
51683	2577
51700	2582
51716	2586
51733	2589
51750	2590
51766	2591
51783	2592
51800	2592
51816	2593
51833	2595
51850	2597
51866	2600
51883	2604
51900	2609
51916	2614
51933	2618
51950	2623
51966	2627
51983	2630
52000	2632
52016	2634
52033	2634
52050	2634
52066	2633
52083	2633
52100	2632
52116	2630
52133	2629
52150	2628
52166	2628
52183	2628
52200	2630
52216	2633
52233	2638
52250	2645
52266	2655
52283	2666
52300	2680
52316	2694
52333	2707
52350	2719
52366	2728
52383	2735
52400	2737
52416	2735
52433	2729
52450	2720
52466	2708
52483	2694
52500	2680
52516	2667
52533	2655
52550	2645
52566	2638
52583	2634
52600	2633
52616	2634
52633	2636
52650	2638
52666	2640
52683	2642
52700	2642
52716	2642
52733	2641
52750	2640
52766	2640
52783	2644
52800	2653
52816	2671
52833	2697
52850	2734
52866	2780
52883	2830
52900	2880
52916	2923
52933	2953
52950	2965
52966	2957
52983	2930
53000	2888
53016	2837
53033	2784
53050	2734
53066	2693
53083	2663
53100	2643
53116	2633
53133	2629
53150	2630
53166	2634
53183	2638
53200	2641
53216	2644
53233	2647
53250	2648
53266	2650
53283	2652
53300	2654
53316	2656
53333	2658
53350	2660
53366	2663
53383	2665
53400	2668
53416	2671
53433	2675
53450	2680
53466	2687
53483	2694
53500	2702
53516	2712
53533	2723
53550	2734
53566	2746
53583	2758
53600	2770
53616	2782
53633	2793
53650	2804
53666	2814
53683	2823
53700	2831
53716	2838
53733	2844
53750	2849
53766	2852
53783	2853
53800	2852
53816	2848
53833	2843
53850	2834
53866	2824
53883	2812
53900	2798
53916	2782
53933	2766
53950	2750
53966	2735
53983	2720
54000	2707
54016	2696
54033	2686
54050	2678
54066	2672
54083	2667
54100	2662
54116	2658
54133	2654
54150	2651
54166	2647
54183	2644
54200	2641
54216	2638
54233	2636
54250	2633
54266	2631
54283	2628
54300	2626
54316	2624
54333	2622
54350	2621
54366	2619
54383	2618
54400	2617
54416	2616
54433	2615
54450	2615
54466	2614
54483	2614
54500	2614
54516	2613
54533	2613
54550	2612
54566	2611
54583	2609
54600	2606
54616	2604
54633	2601
54650	2600
54666	2599
54683	2600
54700	2602
54716	2603
54733	2605
54750	2606
54766	2606
54783	2605
54800	2602
54816	2599
54833	2596
54850	2592
54866	2589
54883	2586
54900	2584
54916	2583
54933	2582
54950	2581
54966	2580
54983	2579
55000	2577
55016	2576
55033	2575
55050	2575
55066	2574
55083	2574
55100	2573
55116	2572
55133	2570
55150	2568
55166	2566
55183	2564
55200	2563
55216	2562
55233	2563
55250	2563
55266	2564
55283	2566
55300	2566
55316	2566
55333	2566
55350	2565
55366	2564
55383	2564
55400	2563
55416	2564
55433	2565
55450	2567
55466	2568
55483	2570
55500	2572
55516	2573
55533	2575
55550	2577
55566	2580
55583	2584
55600	2588
55616	2594
55633	2601
55650	2608
55666	2615
55683	2622
55700	2626
55716	2629
55733	2630
55750	2628
55766	2624
55783	2617
55800	2609
55816	2599
55833	2588
55850	2578
55866	2569
55883	2562
55900	2557
55916	2556
55933	2559
55950	2569
55966	2586
55983	2613
56000	2651
56016	2703
56033	2769
56050	2847
56066	2936
56083	3031
56100	3128
56116	3222
56133	3310
56150	3391
56166	3464
56183	3530
56200	3591
56216	3645
56233	3689
56250	3720
56266	3731
56283	3721
56300	3686
56316	3631
56333	3559
56350	3481
56366	3403
56383	3334
56400	3277
56416	3233
56433	3203
56450	3182
56466	3167
56483	3156
56500	3146
56516	3137
56533	3127
56550	3117
56566	3107
56583	3097
56600	3087
56616	3077
56633	3067
56650	3058
56666	3048
56683	3038
56700	3028
56716	3019
56733	3010
56750	3002
56766	2995
56783	2989
56800	2986
56816	2984
56833	2985
56850	2988
56866	2994
56883	3002
56900	3011
56916	3020
56933	3030
56950	3040
56966	3049
56983	3057
57000	3063
57016	3068
57033	3072
57050	3073
57066	3072
57083	3070
57100	3065
57116	3057
57133	3047
57150	3035
57166	3019
57183	3001
57200	2980
57216	2955
57233	2928
57250	2897
57266	2863
57283	2827
57300	2789
57316	2752
57333	2715
57350	2681
57366	2651
57383	2625
57400	2603
57416	2585
57433	2570
57450	2559
57466	2550
57483	2542
57500	2536
57516	2530
57533	2525
57550	2519
57566	2514
57583	2509
57600	2505
57616	2500
57633	2495
57650	2491
57666	2488
57683	2485
57700	2483
57716	2481
57733	2480
57750	2479
57766	2479
57783	2479
57800	2479
57816	2479
57833	2480
57850	2480
57866	2481
57883	2482
57900	2483
57916	2484
57933	2485
57950	2486
57966	2487
57983	2488
58000	2489
58016	2489
58033	2490
58050	2491
58066	2491
58083	2492
58100	2492
58116	2492
58133	2492
58150	2493
58166	2493
58183	2493
58200	2493
58216	2493
58233	2493
58250	2494
58266	2495
58283	2496
58300	2497
58316	2498
58333	2499
58350	2500
58366	2501
58383	2502
58400	2503
58416	2504
58433	2504
58450	2505
58466	2505
58483	2505
58500	2506
58516	2506
58533	2506
58550	2506
58566	2506
58583	2506
58600	2506
58616	2506
58633	2506
58650	2505
58666	2505
58683	2504
58700	2503
58716	2503
58733	2502
58750	2502
58766	2502
58783	2502
58800	2502
58816	2502
58833	2503
58850	2504
58866	2506
58883	2509
58900	2514
58916	2520
58933	2527
58950	2535
58966	2544
58983	2554
59000	2562
59016	2570
59033	2576
59050	2579
59066	2580
59083	2578
59100	2573
59116	2566
59133	2557
59150	2546
59166	2535
59183	2525
59200	2515
59216	2507
59233	2501
59250	2496
59266	2492
59283	2490
59300	2489
59316	2488
59333	2488
59350	2488
59366	2488
59383	2487
59400	2487
59416	2488
59433	2491
59450	2498
59466	2511
59483	2532
59500	2564
59516	2605
59533	2654
59550	2706
59566	2756
59583	2795
59600	2819
59616	2822
59633	2804
59650	2767
59666	2717
59683	2661
59700	2606
59716	2556
59733	2517
59750	2489
59766	2471
59783	2461
59800	2457
59816	2456
59833	2457
59850	2458
59866	2460
59883	2461
59900	2463
59916	2465
59933	2466
59950	2468
59966	2469
59983	2470
60000	2471
60016	2472
60033	2473
60050	2475
60066	2477
60083	2479
60100	2482
60116	2486
60133	2492
60150	2500
60166	2510
60183	2521
60200	2535
60216	2551
60233	2569
60250	2587
60266	2605
60283	2624
60300	2641
60316	2657
60333	2672
60350	2685
60366	2696
60383	2704
60400	2710
60416	2714
60433	2715
60450	2714
60466	2711
60483	2705
60500	2696
60516	2684
60533	2671
60550	2655
60566	2636
60583	2617
60600	2596
60616	2575
60633	2554
60650	2534
60666	2516
60683	2500
60700	2486
60716	2475
60733	2467
60750	2461
60766	2458
60783	2456
60800	2455
60816	2456
60833	2457
60850	2458
60866	2460
60883	2461
60900	2463
60916	2464
60933	2465
60950	2467
60966	2468
60983	2470
61000	2471
61016	2473
61033	2474
61050	2476
61066	2477
61083	2479
61100	2481
61116	2484
61133	2486
61150	2489
61166	2492
61183	2494
61200	2497
61216	2500
61233	2502
61250	2505
61266	2507
61283	2509
61300	2512
61316	2514
61333	2515
61350	2517
61366	2519
61383	2520
61400	2521
61416	2523
61433	2524
61450	2526
61466	2528
61483	2529
61500	2531
61516	2533
61533	2534
61550	2536
61566	2537
61583	2538
61600	2539
61616	2540
61633	2542
61650	2543
61666	2544
61683	2545
61700	2546
61716	2547
61733	2548
61750	2549
61766	2550
61783	2551
61800	2552
61816	2552
61833	2553
61850	2554
61866	2555
61883	2556
61900	2557
61916	2558
61933	2559
61950	2561
61966	2563
61983	2564
62000	2566
62016	2567
62033	2568
62050	2569
62066	2570
62083	2570
62100	2571
62116	2572
62133	2573
62150	2575
62166	2578
62183	2581
62200	2585
62216	2592
62233	2599
62250	2609
62266	2621
62283	2634
62300	2648
62316	2663
62333	2677
62350	2688
62366	2697
62383	2703
62400	2704
62416	2702
62433	2695
62450	2685
62466	2672
62483	2658
62500	2643
62516	2629
62533	2616
62550	2605
62566	2597
62583	2591
62600	2587
62616	2585
62633	2583
62650	2583
62666	2583
62683	2584
62700	2584
62716	2584
62733	2585
62750	2587
62766	2592
62783	2602
62800	2620
62816	2649
62833	2691
62850	2745
62866	2807
62883	2871
62900	2930
62916	2974
62933	2996
62950	2993
62966	2963
62983	2910
63000	2843
63016	2770
63033	2699
63050	2637
63066	2589
63083	2554
63100	2532
63116	2521
63133	2516
63150	2516
63166	2517
63183	2520
63200	2523
63216	2525
63233	2528
63250	2530
63266	2533
63283	2536
63300	2538
63316	2541
63333	2543
63350	2545
63366	2548
63383	2550
63400	2553
63416	2556
63433	2561
63450	2567
63466	2576
63483	2588
63500	2604
63516	2622
63533	2644
63550	2668
63566	2693
63583	2720
63600	2745
63616	2770
63633	2793
63650	2813
63666	2831
63683	2845
63700	2857
63716	2865
63733	2870
63750	2871
63766	2870
63783	2865
63800	2857
63816	2846
63833	2832
63850	2815
63866	2795
63883	2773
63900	2748
63916	2722
63933	2694
63950	2665
63966	2637
63983	2611
64000	2587
64016	2566
64033	2549
64050	2537
64066	2528
64083	2523
64100	2520
64116	2520
64133	2521
64150	2523
64166	2526
64183	2529
64200	2532
64216	2536
64233	2539
64250	2542
64266	2545
64283	2547
64300	2549
64316	2551
64333	2553
64350	2555
64366	2556
64383	2557
64400	2558
64416	2559
64433	2559
64450	2560
64466	2560
64483	2561
64500	2561
64516	2562
64533	2563
64550	2564
64566	2565
64583	2566
64600	2567
64616	2568
64633	2568
64650	2569
64666	2569
64683	2570
64700	2570
64716	2571
64733	2572
64750	2572
64766	2573
64783	2573
64800	2574
64816	2574
64833	2574
64850	2574
64866	2575
64883	2576
64900	2576
64916	2577
64933	2578
64950	2578
64966	2579
64983	2580
65000	2581
65016	2581
65033	2582
65050	2582
65066	2583
65083	2583
65100	2584
65116	2584
65133	2585
65150	2586
65166	2586
65183	2587
65200	2587
65216	2587
65233	2588
65250	2588
65266	2588
65283	2588
65300	2589
65316	2589
65333	2590
65350	2590
65366	2591
65383	2591
65400	2592
65416	2592
65433	2592
65450	2592
65466	2593
65483	2593
65500	2594
65516	2596
65533	2600
65550	2604
65566	2610
65583	2619
65600	2628
65616	2639
65633	2650
65650	2661
65666	2671
65683	2680
65700	2686
65716	2689
65733	2690
65750	2687
65766	2681
65783	2673
65800	2662
65816	2651
65833	2640
65850	2629
65866	2619
65883	2611
65900	2604
65916	2599
65933	2596
65950	2594
65966	2593
65983	2592
66000	2592
66016	2591
66033	2591
66050	2591
66066	2591
66083	2592
66100	2596
66116	2605
66133	2621
66150	2648
66166	2685
66183	2733
66200	2787
66216	2842
66233	2891
66250	2927
66266	2944
66283	2938
66300	2911
66316	2865
66333	2809
66350	2749
66366	2692
66383	2643
66400	2606
66416	2579
66433	2563
66450	2554
66466	2551
66483	2550
66500	2551
66516	2552
66533	2553
66550	2554
66566	2555
66583	2555
66600	2555
66616	2556
66633	2556
66650	2556
66666	2556
66683	2556
66700	2557
66716	2558
66733	2560
66750	2562
66766	2565
66783	2569
66800	2575
66816	2583
66833	2593
66850	2606
66866	2620
66883	2636
66900	2654
66916	2672
66933	2690
66950	2709
66966	2726
66983	2743
67000	2757
67016	2770
67033	2781
67050	2790
67066	2796
67083	2799
67100	2799
67116	2796
67133	2791
67150	2782
67166	2771
67183	2757
67200	2741
67216	2723
67233	2703
67250	2681
67266	2659
67283	2636
67300	2614
67316	2592
67333	2572
67350	2555
67366	2540
67383	2529
67400	2520
67416	2514
67433	2511
67450	2509
67466	2509
67483	2510
67500	2511
67516	2512
67533	2513
67550	2514
67566	2516
67583	2517
67600	2518
67616	2519
67633	2520
67650	2521
67666	2522
67683	2524
67700	2525
67716	2526
67733	2527
67750	2529
67766	2530
67783	2532
67800	2533
67816	2534
67833	2536
67850	2537
67866	2538
67883	2539
67900	2540
67916	2542
67933	2543
67950	2544
67966	2545
67983	2546
68000	2548
68016	2549
68033	2551
68050	2552
68066	2553
68083	2554
68100	2555
68116	2555
68133	2556
68150	2556
68166	2557
68183	2558
68200	2559
68216	2560
68233	2562
68250	2564
68266	2565
68283	2567
68300	2569
68316	2570
68333	2571
68350	2572
68366	2573
68383	2573
68400	2574
68416	2574
68433	2575
68450	2576
68466	2577
68483	2578
68500	2579
68516	2580
68533	2581
68550	2581
68566	2582
68583	2582
68600	2583
68616	2583
68633	2584
68650	2584
68666	2585
68683	2586
68700	2586
68716	2587
68733	2587
68750	2588
68766	2589
68783	2590
68800	2592
68816	2594
68833	2597
68850	2601
68866	2606
68883	2613
68900	2622
68916	2634
68933	2649
68950	2666
68966	2684
68983	2703
69000	2720
69016	2734
69033	2745
69050	2751
69066	2753
69083	2749
69100	2740
69116	2727
69133	2711
69150	2692
69166	2673
69183	2655
69200	2638
69216	2623
69233	2612
69250	2603
69266	2596
69283	2592
69300	2589
69316	2588
69333	2587
69350	2587
69366	2586
69383	2585
69400	2585
69416	2587
69433	2592
69450	2605
69466	2626
69483	2659
69500	2704
69516	2759
69533	2819
69550	2879
69566	2930
69583	2964
69600	2976
69616	2964
69633	2929
69650	2876
69666	2811
69683	2742
69700	2677
69716	2622
69733	2578
69750	2548
69766	2529
69783	2520
69800	2516
69816	2517
69833	2519
69850	2522
69866	2525
69883	2528
69900	2530
69916	2533
69933	2536
69950	2539
69966	2543
69983	2546
70000	2549
70016	2552
70033	2555
70050	2559
70066	2562
70083	2566
70100	2570
70116	2575
70133	2582
70150	2590
70166	2600
70183	2612
70200	2626
70216	2642
70233	2659
70250	2677
70266	2695
70283	2714
70300	2731
70316	2747
70333	2762
70350	2774
70366	2784
70383	2791
70400	2796
70416	2797
70433	2796
70450	2791
70466	2783
70483	2771
70500	2757
70516	2741
70533	2723
70550	2703
70566	2682
70583	2662
70600	2642
70616	2623
70633	2605
70650	2590
70666	2576
70683	2564
70700	2555
70716	2548
70733	2544
70750	2541
70766	2539
70783	2538
70800	2538
70816	2538
70833	2538
70850	2539
70866	2540
70883	2540
70900	2541
70916	2541
70933	2542
70950	2542
70966	2542
70983	2542
71000	2543
71016	2543
71033	2544
71050	2545
71066	2546
71083	2547
71100	2548
71116	2549
71133	2551
71150	2552
71166	2553
71183	2554
71200	2555
71216	2556
71233	2557
71250	2558
71266	2560
71283	2561
71300	2562
71316	2563
71333	2563
71350	2564
71366	2564
71383	2565
71400	2565
71416	2566
71433	2566
71450	2567
71466	2568
71483	2569
71500	2570
71516	2570
71533	2571
71550	2572
71566	2572
71583	2573
71600	2574
71616	2575
71633	2575
71650	2576
71666	2577
71683	2577
71700	2578
71716	2578
71733	2579
71750	2579
71766	2580
71783	2581
71800	2582
71816	2583
71833	2584
71850	2585
71866	2586
71883	2586
71900	2587
71916	2587
71933	2587
71950	2587
71966	2587
71983	2587
72000	2588
72016	2588
72033	2589
72050	2590
72066	2590
72083	2591
72100	2591
72116	2592
72133	2592
72150	2593
72166	2594
72183	2596
72200	2600
72216	2605
72233	2612
72250	2620
72266	2631
72283	2642
72300	2654
72316	2666
72333	2677
72350	2685
72366	2691
72383	2694
72400	2694
72416	2690
72433	2683
72450	2673
72466	2661
72483	2649
72500	2636
72516	2623
72533	2612
72550	2602
72566	2594
72583	2588
72600	2584
72616	2581
72633	2579
72650	2578
72666	2577
72683	2577
72700	2577
72716	2577
72733	2577
72750	2579
72766	2585
72783	2596
72800	2615
72816	2643
72833	2682
72850	2729
72866	2781
72883	2833
72900	2877
72916	2908
72933	2919
72950	2910
72966	2880
72983	2835
73000	2780
73016	2723
73033	2670
73050	2625
73066	2591
73083	2567
73100	2553
73116	2546
73133	2543
73150	2543
73166	2544
73183	2545
73200	2546
73216	2547
73233	2548
73250	2550
73266	2551
73283	2552
73300	2553
73316	2554
73333	2554
73350	2555
73366	2556
73383	2557
73400	2559
73416	2562
73433	2566
73450	2571
73466	2578
73483	2587
73500	2599
73516	2612
73533	2628
73550	2645
73566	2664
73583	2684
73600	2704
73616	2723
73633	2742
73650	2759
73666	2773
73683	2786
73700	2797
73716	2804
73733	2810
73750	2812
73766	2812
73783	2808
73800	2802
73816	2793
73833	2780
73850	2765
73866	2748
73883	2728
73900	2706
73916	2682
73933	2658
73950	2633
73966	2610
73983	2587
74000	2567
74016	2550
74033	2536
74050	2525
74066	2517
74083	2511
74100	2508
74116	2506
74133	2505
74150	2505
74166	2506
74183	2508
74200	2509
74216	2510
74233	2512
74250	2514
74266	2515
74283	2517
74300	2518
74316	2520
74333	2521
74350	2522
74366	2524
74383	2525
74400	2527
74416	2529
74433	2530
74450	2532
74466	2534
74483	2536
74500	2538
74516	2539
74533	2541
74550	2542
74566	2543
74583	2543
74600	2544
74616	2545
74633	2547
74650	2548
74666	2549
74683	2551
74700	2552
74716	2554
74733	2555
74750	2556
74766	2557
74783	2558
74800	2560
74816	2561
74833	2562
74850	2563
74866	2564
74883	2565
74900	2566
74916	2567
74933	2569
74950	2570
74966	2571
74983	2572
75000	2573
75016	2574
75033	2575
75050	2576
75066	2577
75083	2577
75100	2578
75116	2578
75133	2578
75150	2578
75166	2578
75183	2578
75200	2578
75216	2578
75233	2578
75250	2579
75266	2579
75283	2580
75300	2581
75316	2582
75333	2584
75350	2585
75366	2587
75383	2589
75400	2591
75416	2593
75433	2595
75450	2596
75466	2598
75483	2601
75500	2605
75516	2609
75533	2616
75550	2625
75566	2637
75583	2651
75600	2668
75616	2686
75633	2704
75650	2722
75666	2738
75683	2750
75700	2759
75716	2762
75733	2760
75750	2753
75766	2741
75783	2726
75800	2707
75816	2688
75833	2669
75850	2650
75866	2634
75883	2620
75900	2610
75916	2602
75933	2596
75950	2593
75966	2591
75983	2590
76000	2590
76016	2590
76033	2591
76050	2591
76066	2593
76083	2596
76100	2603
76116	2617
76133	2639
76150	2671
76166	2713
76183	2763
76200	2817
76216	2869
76233	2913
76250	2943
76266	2954
76283	2943
76300	2914
76316	2868
76333	2813
76350	2756
76366	2702
76383	2655
76400	2619
76416	2593
76433	2577
76450	2568
76466	2564
76483	2563
76500	2563
76516	2564
76533	2565
76550	2566
76566	2566
76583	2567
76600	2568
76616	2568
76633	2569
76650	2569
76666	2570
76683	2570
76700	2571
76716	2572
76733	2573
76750	2575
76766	2578
76783	2581
76800	2587
76816	2593
76833	2602
76850	2611
76866	2623
76883	2636
76900	2649
76916	2663
76933	2676
76950	2690
76966	2702
76983	2712
77000	2722
77016	2730
77033	2736
77050	2741
77066	2744
77083	2746
77100	2745
77116	2743
77133	2739
77150	2732
77166	2723
77183	2712
77200	2699
77216	2684
77233	2668
77250	2651
77266	2633
77283	2616
77300	2599
77316	2583
77333	2569
77350	2557
77366	2548
77383	2540
77400	2535
77416	2532
77433	2530
77450	2529
77466	2529
77483	2529
77500	2529
77516	2529
77533	2530
77550	2531
77566	2532
77583	2533
77600	2534
77616	2535
77633	2536
77650	2537
77666	2537
77683	2538
77700	2539
77716	2540
77733	2540
77750	2541
77766	2542
77783	2542
77800	2543
77816	2544
77833	2545
77850	2546
77866	2547
77883	2548
77900	2549
77916	2550
77933	2551
77950	2552
77966	2553
77983	2554
78000	2556
78016	2557
78033	2558
78050	2559
78066	2561
78083	2562
78100	2563
78116	2563
78133	2564
78150	2564
78166	2565
78183	2565
78200	2566
78216	2567
78233	2568
78250	2569
78266	2570
78283	2571
78300	2572
78316	2572
78333	2573
78350	2573
78366	2574
78383	2574
78400	2574
78416	2575
78433	2576
78450	2577
78466	2578
78483	2579
78500	2581
78516	2582
78533	2583
78550	2584
78566	2585
78583	2586
78600	2587
78616	2588
78633	2588
78650	2589
78666	2590
78683	2590
78700	2591
78716	2592
78733	2592
78750	2593
78766	2594
78783	2594
78800	2595
78816	2596
78833	2598
78850	2600
78866	2604
78883	2609
78900	2617
78916	2626
78933	2637
78950	2649
78966	2662
78983	2674
79000	2685
79016	2693
79033	2699
79050	2702
79066	2700
79083	2695
79100	2687
79116	2675
79133	2662
79150	2648
79166	2635
79183	2622
79200	2611
79216	2602
79233	2595
79250	2591
79266	2588
79283	2587
79300	2586
79316	2587
79333	2587
79350	2587
79366	2587
79383	2587
79400	2588
79416	2590
79433	2596
79450	2608
79466	2628
79483	2659
79500	2699
79516	2749
79533	2803
79550	2856
79566	2901
79583	2930
79600	2940
79616	2927
79633	2894
79650	2844
79666	2785
79683	2724
79700	2668
79716	2621
79733	2586
79750	2563
79766	2549
79783	2543
79800	2542
79816	2542
79833	2544
79850	2546
79866	2547
79883	2548
79900	2550
79916	2551
79933	2553
79950	2554
79966	2556
79983	2557
80000	2558
80016	2559
80033	2560
80050	2561
80066	2562
80083	2565
80100	2569
80116	2574
80133	2582
80150	2591
80166	2603
80183	2617
80200	2634
80216	2652
80233	2671
80250	2692
80266	2712
80283	2732
80300	2750
80316	2768
80333	2783
80350	2796
80366	2807
80383	2816
80400	2821
80416	2824
80433	2823
80450	2819
80466	2811
80483	2800
80500	2786
80516	2769
80533	2749
80550	2727
80566	2703
80583	2677
80600	2651
80616	2626
80633	2602
80650	2580
80666	2560
80683	2543
80700	2530
80716	2519
80733	2512
80750	2507
80766	2504
80783	2502
80800	2501
80816	2500
80833	2500
80850	2499
80866	2497
80883	2496
80900	2495
80916	2493
80933	2492
80950	2491
80966	2490
80983	2490
81000	2490
81016	2491
81033	2492
81050	2493
81066	2495
81083	2497
81100	2499
81116	2502
81133	2504
81150	2506
81166	2509
81183	2511
81200	2513
81216	2516
81233	2518
81250	2520
81266	2522
81283	2525
81300	2527
81316	2529
81333	2531
81350	2534
81366	2536
81383	2537
81400	2539
81416	2540
81433	2541
81450	2543
81466	2544
81483	2545
81500	2547
81516	2548
81533	2550
81550	2551
81566	2553
81583	2554
81600	2556
81616	2557
81633	2559
81650	2561
81666	2563
81683	2565
81700	2566
81716	2568
81733	2569
81750	2570
81766	2571
81783	2572
81800	2573
81816	2575
81833	2576
81850	2578
81866	2579
81883	2581
81900	2582
81916	2583
81933	2584
81950	2585
81966	2586
81983	2586
82000	2587
82016	2587
82033	2587
82050	2588
82066	2588
82083	2588
82100	2589
82116	2590
82133	2591
82150	2592
82166	2593
82183	2595
82200	2599
82216	2603
82233	2609
82250	2616
82266	2625
82283	2634
82300	2644
82316	2653
82333	2661
82350	2667
82366	2670
82383	2671
82400	2668
82416	2663
82433	2656
82450	2647
82466	2637
82483	2626
82500	2617
82516	2608
82533	2601
82550	2596
82566	2592
82583	2589
82600	2588
82616	2587
82633	2587
82650	2587
82666	2587
82683	2587
82700	2587
82716	2587
82733	2587
82750	2590
82766	2596
82783	2607
82800	2626
82816	2655
82833	2693
82850	2740
82866	2793
82883	2844
82900	2887
82916	2917
82933	2928
82950	2917
82966	2886
82983	2839
83000	2784
83016	2726
83033	2674
83050	2630
83066	2598
83083	2577
83100	2566
83116	2561
83133	2560
83150	2561
83166	2562
83183	2563
83200	2564
83216	2564
83233	2565
83250	2565
83266	2565
83283	2565
83300	2565
83316	2565
83333	2565
83350	2565
83366	2565
83383	2566
83400	2567
83416	2570
83433	2573
83450	2578
83466	2584
83483	2593
83500	2603
83516	2615
83533	2629
83550	2645
83566	2660
83583	2677
83600	2693
83616	2709
83633	2723
83650	2736
83666	2748
83683	2758
83700	2766
83716	2771
83733	2775
83750	2776
83766	2775
83783	2772
83800	2766
83816	2757
83833	2746
83850	2732
83866	2716
83883	2698
83900	2679
83916	2658
83933	2638
83950	2617
83966	2598
83983	2580
84000	2564
84016	2551
84033	2540
84050	2532
84066	2527
84083	2523
84100	2521
84116	2520
84133	2520
84150	2521
84166	2523
84183	2524
84200	2525
84216	2527
84233	2528
84250	2529
84266	2530
84283	2531
84300	2532
84316	2533
84333	2534
84350	2534
84366	2535
84383	2536
84400	2538
84416	2539
84433	2540
84450	2542
84466	2543
84483	2544
84500	2545
84516	2546
84533	2547
84550	2548
84566	2549
84583	2549
84600	2550
84616	2550
84633	2551
84650	2551
84666	2552
84683	2553
84700	2553
84716	2554
84733	2556
84750	2557
84766	2558
84783	2560
84800	2561
84816	2563
84833	2564
84850	2565
84866	2566
84883	2567
84900	2568
84916	2568
84933	2569
84950	2569
84966	2570
84983	2570
85000	2571
85016	2572
85033	2573
85050	2574
85066	2575
85083	2576
85100	2577
85116	2577
85133	2578
85150	2578
85166	2578
85183	2579
85200	2579
85216	2579
85233	2580
85250	2581
85266	2581
85283	2582
85300	2583
85316	2584
85333	2584
85350	2586
85366	2587
85383	2588
85400	2589
85416	2590
85433	2591
85450	2591
85466	2593
85483	2594
85500	2597
85516	2600
85533	2605
85550	2612
85566	2620
85583	2631
85600	2643
85616	2656
85633	2670
85650	2683
85666	2695
85683	2704
85700	2709
85716	2711
85733	2708
85750	2701
85766	2691
85783	2679
85800	2664
85816	2650
85833	2636
85850	2623
85866	2612
85883	2603
85900	2596
85916	2591
85933	2589
85950	2587
85966	2586
85983	2586
86000	2586
86016	2586
86033	2586
86050	2586
86066	2587
86083	2591
86100	2600
86116	2617
86133	2644
86150	2683
86166	2734
86183	2794
86200	2859
86216	2920
86233	2969
86250	2999
86266	3003
86283	2981
86300	2936
86316	2873
86333	2802
86350	2732
86366	2669
86383	2618
86400	2581
86416	2558
86433	2545
86450	2539
86466	2538
86483	2539
86500	2541
86516	2543
86533	2544
86550	2546
86566	2547
86583	2547
86600	2548
86616	2550
86633	2551
86650	2552
86666	2553
86683	2554
86700	2555
86716	2557
86733	2560
86750	2564
86766	2570
86783	2579
86800	2590
86816	2606
86833	2625
86850	2647
86866	2672
86883	2699
86900	2727
86916	2755
86933	2782
86950	2808
86966	2831
86983	2852
87000	2869
87016	2883
87033	2894
87050	2901
87066	2905
87083	2905
87100	2902
87116	2895
87133	2885
87150	2870
87166	2852
87183	2830
87200	2804
87216	2774
87233	2742
87250	2707
87266	2672
87283	2636
87300	2602
87316	2571
87333	2543
87350	2520
87366	2502
87383	2489
87400	2480
87416	2475
87433	2472
87450	2472
87466	2474
87483	2476
87500	2480
87516	2484
87533	2488
87550	2492
87566	2496
87583	2500
87600	2504
87616	2507
87633	2511
87650	2516
87666	2520
87683	2524
87700	2528
87716	2532
87733	2536
87750	2540
87766	2543
87783	2547
87800	2550
87816	2552
87833	2554
87850	2556
87866	2558
87883	2559
87900	2561
87916	2562
87933	2563
87950	2564
87966	2565
87983	2566
88000	2567
88016	2568
88033	2569
88050	2570
88066	2570
88083	2571
88100	2572
88116	2572
88133	2573
88150	2574
88166	2575
88183	2575
88200	2576
88216	2577
88233	2577
88250	2578
88266	2578
88283	2578
88300	2578
88316	2578
88333	2578
88350	2578
88366	2579
88383	2579
88400	2579
88416	2580
88433	2581
88450	2581
88466	2582
88483	2582
88500	2582
88516	2583
88533	2583
88550	2583
88566	2584
88583	2584
88600	2585
88616	2585
88633	2586
88650	2586
88666	2587
88683	2587
88700	2587
88716	2588
88733	2588
88750	2589
88766	2590
88783	2591
88800	2592
88816	2593
88833	2595
88850	2598
88866	2603
88883	2608
88900	2615
88916	2624
88933	2633
88950	2644
88966	2654
88983	2664
89000	2673
89016	2679
89033	2682
89050	2683
89066	2680
89083	2674
89100	2666
89116	2656
89133	2645
89150	2634
89166	2623
89183	2613
89200	2605
89216	2598
89233	2593
89250	2589
89266	2587
89283	2585
89300	2584
89316	2583
89333	2583
89350	2582
89366	2582
89383	2582
89400	2583
89416	2587
89433	2595
89450	2610
89466	2635
89483	2671
89500	2717
89516	2771
89533	2828
89550	2880
89566	2920
89583	2942
89600	2941
89616	2917
89633	2874
89650	2818
89666	2757
89683	2698
89700	2646
89716	2606
89733	2578
89750	2561
89766	2552
89783	2549
89800	2549
89816	2550
89833	2552
89850	2553
89866	2554
89883	2555
89900	2556
89916	2556
89933	2557
89950	2558
89966	2559
89983	2560
90000	2561
90016	2562
90033	2563
90050	2564
90066	2566
90083	2569
90100	2573
90116	2579
90133	2587
90150	2597
90166	2609
90183	2623
90200	2638
90216	2656
90233	2673
90250	2692
90266	2710
90283	2727
90300	2743
90316	2757
90333	2770
90350	2781
90366	2789
90383	2796
90400	2800
90416	2802
90433	2801
90450	2797
90466	2789
90483	2779
90500	2765
90516	2749
90533	2731
90550	2710
90566	2687
90583	2664
90600	2640
90616	2617
90633	2595
90650	2575
90666	2557
90683	2543
90700	2531
90716	2523
90733	2518
90750	2515
90766	2513
90783	2513
90800	2514
90816	2515
90833	2516
90850	2517
90866	2518
90883	2519
90900	2520
90916	2521
90933	2522
90950	2523
90966	2524
90983	2525
91000	2527
91016	2528
91033	2529
91050	2530
91066	2531
91083	2533
91100	2534
91116	2535
91133	2536
91150	2537
91166	2538
91183	2539
91200	2541
91216	2542
91233	2544
91250	2545
91266	2547
91283	2548
91300	2549
91316	2550
91333	2551
91350	2551
91366	2552
91383	2553
91400	2554
91416	2555
91433	2555
91450	2556
91466	2557
91483	2558
91500	2558
91516	2559
91533	2559
91550	2560
91566	2560
91583	2561
91600	2561
91616	2562
91633	2563
91650	2563
91666	2564
91683	2565
91700	2566
91716	2566
91733	2567
91750	2568
91766	2569
91783	2570
91800	2570
91816	2571
91833	2572
91850	2573
91866	2574
91883	2575
91900	2576
91916	2577
91933	2577
91950	2578
91966	2578
91983	2578
92000	2578
92016	2579
92033	2579
92050	2580
92066	2581
92083	2582
92100	2584
92116	2585
92133	2588
92150	2591
92166	2595
92183	2601
92200	2609
92216	2620
92233	2632
92250	2647
92266	2664
92283	2682
92300	2700
92316	2716
92333	2730
92350	2741
92366	2747
92383	2748
92400	2745
92416	2736
92433	2723
92450	2706
92466	2687
92483	2668
92500	2649
92516	2632
92533	2617
92550	2605
92566	2597
92583	2590
92600	2587
92616	2585
92633	2584
92650	2584
92666	2584
92683	2584
92700	2584
92716	2585
92733	2586
92750	2590
92766	2600
92783	2617
92800	2645
92816	2685
92833	2737
92850	2797
92866	2858
92883	2913
92900	2953
92916	2971
92933	2964
92950	2932
92966	2880
92983	2815
93000	2746
93016	2681
93033	2626
93050	2584
93066	2555
93083	2538
93100	2530
93116	2528
93133	2530
93150	2533
93166	2537
93183	2541
93200	2545
93216	2548
93233	2552
93250	2555
93266	2558
93283	2561
93300	2564
93316	2567
93333	2570
93350	2572
93366	2574
93383	2576
93400	2578
93416	2580
93433	2583
93450	2586
93466	2591
93483	2598
93500	2607
93516	2617
93533	2630
93550	2644
93566	2660
93583	2676
93600	2693
93616	2710
93633	2726
93650	2741
93666	2753
93683	2764
93700	2771
93716	2776
93733	2778
93750	2776
93766	2771
93783	2763
93800	2753
93816	2740
93833	2725
93850	2708
93866	2691
93883	2673
93900	2655
93916	2637
93933	2619
93950	2603
93966	2588
93983	2575
94000	2563
94016	2553
94033	2546
94050	2541
94066	2537
94083	2534
94100	2533
94116	2533
94133	2533
94150	2534
94166	2535
94183	2536
94200	2537
94216	2537
94233	2538
94250	2539
94266	2540
94283	2540
94300	2541
94316	2541
94333	2542
94350	2542
94366	2542
94383	2542
94400	2542
94416	2543
94433	2543
94450	2543
94466	2544
94483	2545
94500	2545
94516	2546
94533	2547
94550	2548
94566	2548
94583	2549
94600	2550
94616	2551
94633	2552
94650	2552
94666	2553
94683	2554
94700	2556
94716	2557
94733	2558
94750	2560
94766	2561
94783	2562
94800	2563
94816	2564
94833	2564
94850	2565
94866	2565
94883	2566
94900	2566
94916	2567
94933	2568
94950	2569
94966	2570
94983	2570
95000	2571
95016	2572
95033	2572
95050	2573
95066	2574
95083	2575
95100	2575
95116	2576
95133	2577
95150	2577
95166	2578
95183	2578
95200	2578
95216	2579
95233	2579
95250	2580
95266	2581
95283	2583
95300	2584
95316	2585
95333	2586
95350	2587
95366	2587
95383	2588
95400	2588
95416	2589
95433	2590
95450	2591
95466	2592
95483	2594
95500	2597
95516	2601
95533	2606
95550	2613
95566	2622
95583	2632
95600	2644
95616	2656
95633	2669
95650	2680
95666	2689
95683	2696
95700	2699
95716	2698
95733	2694
95750	2686
95766	2676
95783	2664
95800	2651
95816	2638
95833	2627
95850	2616
95866	2607
95883	2600
95900	2595
95916	2592
95933	2590
95950	2589
95966	2589
95983	2590
96000	2590
96016	2590
96033	2590
96050	2590
96066	2592
96083	2597
96100	2608
96116	2627
96133	2657
96150	2698
96166	2750
96183	2808
96200	2866
96216	2916
96233	2951
96250	2965
96266	2954
96283	2922
96300	2871
96316	2810
96333	2745
96350	2685
96366	2635
96383	2596
96400	2570
96416	2554
96433	2546
96450	2544
96466	2544
96483	2545
96500	2547
96516	2548
96533	2549
96550	2550
96566	2551
96583	2551
96600	2552
96616	2552
96633	2553
96650	2554
96666	2555
96683	2556
96700	2557
96716	2559
96733	2561
96750	2564
96766	2569
96783	2576
96800	2584
96816	2595
96833	2609
96850	2625
96866	2643
96883	2662
96900	2683
96916	2704
96933	2724
96950	2743
96966	2760
96983	2776
97000	2788
97016	2799
97033	2806
97050	2811
97066	2813
97083	2813
97100	2809
97116	2803
97133	2795
97150	2783
97166	2769
97183	2752
97200	2732
97216	2710
97233	2686
97250	2661
97266	2635
97283	2610
97300	2587
97316	2566
97333	2548
97350	2533
97366	2522
97383	2514
97400	2509
97416	2506
97433	2505
97450	2506
97466	2507
97483	2508
97500	2510
97516	2511
97533	2512
97550	2513
97566	2513
97583	2512
97600	2511
97616	2510
97633	2509
97650	2507
97666	2506
97683	2505
97700	2505
97716	2505
97733	2505
97750	2507
97766	2508
97783	2511
97800	2513
97816	2516
97833	2519
97850	2522
97866	2524
97883	2527
97900	2530
97916	2532
97933	2534
97950	2536
97966	2538
97983	2540
98000	2542
98016	2543
98033	2545
98050	2546
98066	2547
98083	2548
98100	2549
98116	2551
98133	2552
98150	2553
98166	2554
98183	2555
98200	2557
98216	2559
98233	2561
98250	2563
98266	2565
98283	2567
98300	2569
98316	2571
98333	2572
98350	2573
98366	2574
98383	2574
98400	2575
98416	2576
98433	2577
98450	2578
98466	2579
98483	2580
98500	2581
98516	2582
98533	2582
98550	2583
98566	2584
98583	2585
98600	2585
98616	2586
98633	2586
98650	2587
98666	2587
98683	2588
98700	2588
98716	2589
98733	2590
98750	2590
98766	2591
98783	2592
98800	2593
98816	2595
98833	2597
98850	2600
98866	2604
98883	2610
98900	2617
98916	2625
98933	2634
98950	2644
98966	2653
98983	2661
99000	2668
99016	2673
99033	2674
99050	2673
99066	2669
99083	2662
99100	2654
99116	2644
99133	2633
99150	2623
99166	2614
99183	2606
99200	2600
99216	2595
99233	2591
99250	2589
99266	2588
99283	2588
99300	2587
99316	2587
99333	2588
99350	2588
99366	2588
99383	2588
99400	2591
99416	2597
99433	2609
99450	2629
99466	2660
99483	2701
99500	2751
99516	2804
99533	2856
99550	2898
99566	2924
99583	2931
99600	2916
99616	2882
99633	2834
99650	2778
99666	2722
99683	2671
99700	2629
99716	2598
99733	2577
99750	2564
99766	2558
99783	2555
99800	2555
99816	2555
99833	2555
99850	2556
99866	2556
99883	2556
99900	2557
99916	2558
99933	2558
99950	2559
99966	2560
99983	2560
100000	2561
100016	2562
100033	2564
100050	2565
100066	2568
100083	2571
100100	2576
100116	2582
100133	2590
100150	2599
100166	2611
100183	2624
100200	2639
100216	2655
100233	2672
100250	2688
100266	2704
100283	2719
100300	2733
100316	2746
100333	2757
100350	2766
100366	2773
100383	2778
100400	2780
100416	2780
100433	2777
100450	2771
100466	2762
100483	2751
100500	2737
100516	2721
100533	2703
100550	2684
100566	2663
100583	2642
100600	2621
100616	2601
100633	2583
100650	2566
100666	2552
100683	2541
100700	2532
100716	2526
100733	2521
100750	2519
100766	2518
100783	2518
100800	2518
100816	2520
100833	2521
100850	2522
100866	2524
100883	2525
100900	2527
100916	2528
100933	2528
100950	2529
100966	2530
100983	2530
101000	2530
101016	2531
101033	2532
101050	2533
101066	2534
101083	2535
101100	2536
101116	2537
101133	2537
101150	2538
101166	2539
101183	2540
101200	2541
101216	2542
101233	2543
101250	2545
101266	2546
101283	2548
101300	2550
101316	2551
101333	2552
101350	2553
101366	2555
101383	2555
101400	2556
101416	2557
101433	2558
101450	2558
101466	2559
101483	2560
101500	2561
101516	2562
101533	2563
101550	2564
101566	2566
101583	2567
101600	2568
101616	2569
101633	2570
101650	2571
101666	2572
101683	2573
101700	2574
101716	2575
101733	2576
101750	2577
101766	2578
101783	2578
101800	2579
101816	2579
101833	2580
101850	2581
101866	2581
101883	2582
101900	2582
101916	2583
101933	2584
101950	2584
101966	2585
101983	2586
102000	2586
102016	2587
102033	2587
102050	2588
102066	2588
102083	2589
102100	2589
102116	2590
102133	2591
102150	2593
102166	2596
102183	2600
102200	2606
102216	2614
102233	2624
102250	2636
102266	2649
102283	2663
102300	2676
102316	2688
102333	2697
102350	2704
102366	2707
102383	2706
102400	2701
102416	2693
102433	2682
102450	2669
102466	2655
102483	2640
102500	2627
102516	2615
102533	2605
102550	2598
102566	2592
102583	2588
102600	2585
102616	2584
102633	2583
102650	2583
102666	2582
102683	2582
102700	2582
102716	2583
102733	2586
102750	2593
102766	2607
102783	2630
102800	2664
102816	2708
102833	2761
102850	2819
102866	2874
102883	2920
102900	2950
102916	2958
102933	2943
102950	2906
102966	2853
102983	2791
103000	2726
103016	2666
103033	2616
103050	2578
103066	2552
103083	2536
103100	2529
103116	2527
103133	2529
103150	2531
103166	2534
103183	2536
103200	2538
103216	2540
103233	2541
103250	2543
103266	2544
103283	2545
103300	2546
103316	2547
103333	2548
103350	2549
103366	2551
103383	2554
103400	2558
103416	2564
103433	2573
103450	2584
103466	2598
103483	2616
103500	2637
103516	2660
103533	2685
103550	2711
103566	2736
103583	2760
103600	2783
103616	2802
103633	2819
103650	2832
103666	2842
103683	2850
103700	2854
103716	2856
103733	2854
103750	2851
103766	2844
103783	2834
103800	2820
103816	2804
103833	2785
103850	2763
103866	2739
103883	2713
103900	2687
103916	2660
103933	2634
103950	2611
103966	2589
103983	2571
104000	2556
104016	2545
104033	2537
104050	2532
104066	2529
104083	2529
104100	2529
104116	2531
104133	2533
104150	2535
104166	2537
104183	2539
104200	2541
104216	2543
104233	2544
104250	2545
104266	2546
104283	2547
104300	2547
104316	2548
104333	2549
104350	2550
104366	2551
104383	2552
104400	2553
104416	2554
104433	2554
104450	2555
104466	2555
104483	2556
104500	2556
104516	2557
104533	2557
104550	2558
104566	2558
104583	2559
104600	2559
104616	2560
104633	2560
104650	2561
104666	2562
104683	2563
104700	2564
104716	2565
104733	2566
104750	2567
104766	2569
104783	2570
104800	2571
104816	2572
104833	2572
104850	2573
104866	2573
104883	2573
104900	2573
104916	2573
104933	2573
104950	2573
104966	2574
104983	2575
105000	2575
105016	2576
105033	2577
105050	2577
105066	2578
105083	2578
105100	2579
105116	2579
105133	2580
105150	2580
105166	2581
105183	2581
105200	2582
105216	2582
105233	2582
105250	2583
105266	2583
105283	2584
105300	2585
105316	2585
105333	2586
105350	2587
105366	2587
105383	2588
105400	2588
105416	2589
105433	2590
105450	2590
105466	2591
105483	2593
105500	2596
105516	2600
105533	2605
105550	2613
105566	2622
105583	2633
105600	2645
105616	2657
105633	2668
105650	2678
105666	2686
105683	2691
105700	2693
105716	2691
105733	2686
105750	2678
105766	2668
105783	2656
105800	2643
105816	2631
105833	2620
105850	2610
105866	2602
105883	2597
105900	2592
105916	2590
105933	2588
105950	2588
105966	2587
105983	2587
106000	2587
106016	2587
106033	2587
106050	2588
106066	2591
106083	2597
106100	2610
106116	2630
106133	2660
106150	2700
106166	2747
106183	2798
106200	2847
106216	2888
106233	2913
106250	2920
106266	2905
106283	2872
106300	2824
106316	2768
106333	2712
106350	2660
106366	2617
106383	2585
106400	2565
106416	2552
106433	2547
106450	2545
106466	2545
106483	2547
106500	2548
106516	2549
106533	2551
106550	2552
106566	2554
106583	2555
106600	2555
106616	2556
106633	2557
106650	2557
106666	2558
106683	2559
106700	2560
106716	2562
106733	2564
106750	2568
106766	2574
106783	2581
106800	2590
106816	2602
106833	2616
106850	2632
106866	2650
106883	2668
106900	2687
106916	2706
106933	2725
106950	2743
106966	2759
106983	2773
107000	2785
107016	2795
107033	2802
107050	2807
107066	2808
107083	2807
107100	2803
107116	2796
107133	2786
107150	2773
107166	2758
107183	2740
107200	2720
107216	2698
107233	2674
107250	2650
107266	2627
107283	2604
107300	2582
107316	2563
107333	2547
107350	2534
107366	2524
107383	2517
107400	2513
107416	2510
107433	2509
107450	2509
107466	2509
107483	2510
107500	2511
107516	2511
107533	2512
107550	2514
107566	2515
107583	2516
107600	2517
107616	2518
107633	2519
107650	2520
107666	2521
107683	2522
107700	2524
107716	2525
107733	2526
107750	2528
107766	2530
107783	2532
107800	2533
107816	2535
107833	2537
107850	2538
107866	2539
107883	2540
107900	2542
107916	2543
107933	2544
107950	2546
107966	2547
107983	2549
108000	2551
108016	2553
108033	2554
108050	2556
108066	2557
108083	2558
108100	2560
108116	2561
108133	2562
108150	2563
108166	2565
108183	2566
108200	2567
108216	2568
108233	2569
108250	2570
108266	2571
108283	2572
108300	2572
108316	2572
108333	2572
108350	2572
108366	2572
108383	2572
108400	2573
108416	2573
108433	2574
108450	2575
108466	2576
108483	2578
108500	2579
108516	2580
108533	2581
108550	2582
108566	2583
108583	2584
108600	2585
108616	2586
108633	2586
108650	2587
108666	2587
108683	2588
108700	2588
108716	2589
108733	2590
108750	2591
108766	2593
108783	2595
108800	2598
108816	2602
108833	2607
108850	2615
108866	2624
108883	2636
108900	2649
108916	2664
108933	2680
108950	2695
108966	2709
108983	2720
109000	2728
109016	2732
109033	2731
109050	2726
109066	2717
109083	2705
109100	2690
109116	2674
109133	2657
109150	2641
109166	2627
109183	2614
109200	2604
109216	2597
109233	2592
109250	2589
109266	2587
109283	2587
109300	2587
109316	2587
109333	2587
109350	2587
109366	2587
109383	2589
109400	2593
109416	2601
109433	2616
109450	2639
109466	2672
109483	2715
109500	2765
109516	2819
109533	2871
109550	2912
109566	2939
109583	2944
109600	2929
109616	2893
109633	2843
109650	2784
109666	2725
109683	2672
109700	2628
109716	2596
109733	2575
109750	2563
109766	2558
109783	2556
109800	2557
109816	2558
109833	2559
109850	2560
109866	2561
109883	2562
109900	2563
109916	2563
109933	2564
109950	2564
109966	2564
109983	2565
110000	2565
110016	2565
110033	2566
110050	2568
110066	2570
110083	2573
110100	2577
110116	2583
110133	2590
110150	2599
110166	2610
110183	2622
110200	2636
110216	2650
110233	2665
110250	2681
110266	2696
110283	2710
110300	2722
110316	2734
110333	2744
110350	2752
110366	2757
110383	2761
110400	2763
110416	2762
110433	2760
110450	2754
110466	2747
110483	2736
110500	2724
110516	2709
110533	2692
110550	2673
110566	2654
110583	2634
110600	2615
110616	2596
110633	2579
110650	2564
110666	2551
110683	2542
110700	2534
110716	2530
110733	2527
110750	2525
110766	2525
110783	2525
110800	2526
110816	2526
110833	2527
110850	2528
110866	2529
110883	2530
110900	2532
110916	2533
110933	2534
110950	2536
110966	2537
110983	2539
111000	2540
111016	2541
111033	2541
111050	2542
111066	2542
111083	2542
111100	2542
111116	2542
111133	2542
111150	2543
111166	2543
111183	2544
111200	2545
111216	2546
111233	2546
111250	2547
111266	2548
111283	2549
111300	2549
111316	2550
111333	2551
111350	2551
111366	2552
111383	2553
111400	2554
111416	2555
111433	2556
111450	2557
111466	2558
111483	2560
111500	2561
111516	2562
111533	2563
111550	2564
111566	2565
111583	2566
111600	2568
111616	2569
111633	2571
111650	2572
111666	2574
111683	2575
111700	2576
111716	2577
111733	2577
111750	2578
111766	2578
111783	2579
111800	2579
111816	2580
111833	2581
111850	2581
111866	2582
111883	2583
111900	2584
111916	2584
111933	2586
111950	2587
111966	2588
111983	2589
112000	2590
112016	2591
112033	2592
112050	2593
112066	2594
112083	2595
112100	2595
112116	2596
112133	2597
112150	2599
112166	2602
112183	2606
112200	2613
112216	2621
112233	2632
112250	2644
112266	2658
112283	2671
112300	2684
112316	2696
112333	2705
112350	2710
112366	2711
112383	2708
112400	2701
112416	2691
112433	2679
112450	2665
112466	2650
112483	2636
112500	2623
112516	2613
112533	2604
112550	2597
112566	2593
112583	2590
112600	2588
112616	2588
112633	2587
112650	2587
112666	2587
112683	2587
112700	2587
112716	2588
112733	2593
112750	2602
112766	2619
112783	2647
112800	2687
112816	2739
112833	2800
112850	2865
112866	2925
112883	2972
112900	2999
112916	3001
112933	2977
112950	2929
112966	2865
112983	2794
113000	2724
113016	2662
113033	2613
113050	2578
113066	2556
113083	2545
113100	2540
113116	2540
113133	2542
113150	2544
113166	2546
113183	2547
113200	2549
113216	2550
113233	2550
113250	2551
113266	2551
113283	2551
113300	2551
113316	2551
113333	2552
113350	2553
113366	2554
113383	2557
113400	2561
113416	2567
113433	2576
113450	2588
113466	2603
113483	2622
113500	2644
113516	2668
113533	2695
113550	2723
113566	2751
113583	2779
113600	2805
113616	2828
113633	2850
113650	2868
113666	2882
113683	2893
113700	2900
113716	2904
113733	2904
113750	2900
113766	2892
113783	2880
113800	2865
113816	2845
113833	2822
113850	2796
113866	2767
113883	2735
113900	2701
113916	2667
113933	2632
113950	2600
113966	2570
113983	2544
114000	2522
114016	2505
114033	2493
114050	2486
114066	2482
114083	2481
114100	2482
114116	2485
114133	2489
114150	2493
114166	2498
114183	2503
114200	2508
114216	2513
114233	2517
114250	2522
114266	2526
114283	2530
114300	2534
114316	2538
114333	2541
114350	2544
114366	2547
114383	2550
114400	2552
114416	2554
114433	2555
114450	2556
114466	2557
114483	2558
114500	2559
114516	2560
114533	2560
114550	2561
114566	2562
114583	2563
114600	2564
114616	2564
114633	2565
114650	2566
114666	2567
114683	2567
114700	2568
114716	2569
114733	2570
114750	2571
114766	2572
114783	2572
114800	2573
114816	2573
114833	2573
114850	2574
114866	2574
114883	2574
114900	2575
114916	2576
114933	2577
114950	2578
114966	2579
114983	2580
115000	2581
115016	2582
115033	2582
115050	2582
115066	2583
115083	2583
115100	2583
115116	2583
115133	2583
115150	2584
115166	2584
115183	2585
115200	2586
115216	2586
115233	2587
115250	2587
115266	2587
115283	2588
115300	2588
115316	2588
115333	2589
115350	2590
115366	2590
115383	2591
115400	2592
115416	2593
115433	2593
115450	2595
115466	2596
115483	2598
115500	2601
115516	2605
115533	2611
115550	2619
115566	2628
115583	2639
115600	2650
115616	2661
115633	2671
115650	2679
115666	2686
115683	2689
115700	2689
115716	2686
115733	2680
115750	2671
115766	2661
115783	2649
115800	2637
115816	2625
115833	2615
115850	2606
115866	2599
115883	2593
115900	2589
115916	2586
115933	2584
115950	2583
115966	2583
115983	2583
116000	2582
116016	2582
116033	2582
116050	2584
116066	2588
116083	2598
116100	2614
116116	2641
116133	2678
116150	2725
116166	2780
116183	2837
116200	2888
116216	2926
116233	2945
116250	2942
116266	2916
116283	2871
116300	2813
116316	2751
116333	2692
116350	2641
116366	2603
116383	2576
116400	2560
116416	2551
116433	2549
116450	2549
116466	2550
116483	2551
116500	2552
116516	2554
116533	2554
116550	2555
116566	2555
116583	2556
116600	2556
116616	2557
116633	2558
116650	2559
116666	2560
116683	2561
116700	2563
116716	2566
116733	2569
116750	2574
116766	2581
116783	2589
116800	2600
116816	2613
116833	2627
116850	2644
116866	2662
116883	2680
116900	2699
116916	2718
116933	2736
116950	2752
116966	2767
116983	2781
117000	2791
117016	2799
117033	2805
117050	2808
117066	2808
117083	2806
117100	2800
117116	2792
117133	2781
117150	2767
117166	2750
117183	2731
117200	2709
117216	2685
117233	2661
117250	2637
117266	2613
117283	2591
117300	2570
117316	2553
117333	2538
117350	2526
117366	2517
117383	2511
117400	2507
117416	2504
117433	2503
117450	2503
117466	2504
117483	2505
117500	2507
117516	2509
117533	2511
117550	2513
117566	2515
117583	2517
117600	2519
117616	2520
117633	2522
117650	2523
117666	2524
117683	2525
117700	2526
117716	2527
117733	2528
117750	2529
117766	2530
117783	2531
117800	2533
117816	2534
117833	2535
117850	2537
117866	2539
117883	2541
117900	2542
117916	2544
117933	2545
117950	2546
117966	2547
117983	2548
118000	2549
118016	2550
118033	2552
118050	2553
118066	2555
118083	2556
118100	2557
118116	2558
118133	2559
118150	2559
118166	2560
118183	2560
118200	2561
118216	2561
118233	2562
118250	2562
118266	2563
118283	2564
118300	2566
118316	2567
118333	2568
118350	2570
118366	2571
118383	2572
118400	2574
118416	2575
118433	2576
118450	2577
118466	2578
118483	2579
118500	2580
118516	2581
118533	2582
118550	2583
118566	2584
118583	2585
118600	2586
118616	2587
118633	2588
118650	2589
118666	2590
118683	2591
118700	2593
118716	2594
118733	2596
118750	2598
118766	2600
118783	2602
118800	2605
118816	2609
118833	2614
118850	2621
118866	2631
118883	2642
118900	2656
118916	2670
118933	2685
118950	2700
118966	2712
118983	2722
119000	2727
119016	2729
119033	2726
119050	2719
119066	2709
119083	2696
119100	2681
119116	2665
119133	2649
119150	2635
119166	2622
119183	2612
119200	2603
119216	2597
119233	2594
119250	2591
119266	2590
119283	2590
119300	2590
119316	2590
119333	2590
119350	2590
119366	2590
119383	2591
119400	2595
119416	2605
119433	2622
119450	2650
119466	2689
119483	2739
119500	2795
119516	2851
119533	2900
119550	2934
119566	2947
119583	2936
119600	2903
119616	2854
119633	2794
119650	2733
119666	2677
119683	2631
119700	2598
119716	2575
119733	2562
119750	2556
119766	2555
119783	2555
119800	2556
119816	2557
119833	2558
119850	2559
119866	2559
119883	2560
119900	2560
119916	2561
119933	2561
119950	2562
119966	2563
119983	2563
120000	2564
120016	2565
120033	2566
120050	2568
120066	2571
120083	2575
120100	2580
120116	2588
120133	2597
120150	2608
120166	2620
120183	2634
120200	2648
120216	2664
120233	2679
120250	2694
120266	2709
120283	2722
120300	2734
120316	2744
120333	2752
120350	2759
120366	2763
120383	2766
120400	2766
120416	2763
120433	2759
120450	2751
120466	2742
120483	2730
120500	2715
120516	2699
120533	2681
120550	2662
120566	2642
120583	2622
120600	2602
120616	2584
120633	2568
120650	2555
120666	2543
120683	2535
120700	2528
120716	2523
120733	2520
120750	2518
120766	2517
120783	2517
120800	2517
120816	2518
120833	2519
120850	2520
120866	2522
120883	2524
120900	2526
120916	2527
120933	2529
120950	2530
120966	2531
120983	2533
121000	2534
121016	2535
121033	2536
121050	2536
121066	2537
121083	2537
121100	2538
121116	2538
121133	2539
121150	2540
121166	2541
121183	2542
121200	2543
121216	2544
121233	2545
121250	2546
121266	2547
121283	2548
121300	2550
121316	2551
121333	2553
121350	2554
121366	2556
121383	2557
121400	2558
121416	2559
121433	2559
121450	2560
121466	2560
121483	2561
121500	2561
121516	2561
121533	2561
121550	2561
121566	2561
121583	2562
121600	2562
121616	2562
121633	2563
121650	2564
121666	2565
121683	2566
121700	2568
121716	2569
121733	2571
121750	2573
121766	2574
121783	2576
121800	2578
121816	2579
121833	2581
121850	2582
121866	2583
121883	2584
121900	2585
121916	2586
121933	2587
121950	2588
121966	2589
121983	2590
122000	2590
122016	2591
122033	2591
122050	2591
122066	2591
122083	2592
122100	2593
122116	2594
122133	2595
122150	2598
122166	2602
122183	2608
122200	2616
122216	2626
122233	2637
122250	2651
122266	2665
122283	2678
122300	2691
122316	2702
122333	2709
122350	2713
122366	2713
122383	2708
122400	2700
122416	2689
122433	2676
122450	2661
122466	2647
122483	2633
122500	2621
122516	2611
122533	2603
122550	2597
122566	2593
122583	2590
122600	2588
122616	2587
122633	2587
122650	2586
122666	2585
122683	2584
122700	2585
122716	2587
122733	2594
122750	2607
122766	2630
122783	2664
122800	2711
122816	2767
122833	2829
122850	2889
122866	2940
122883	2973
122900	2983
122916	2968
122933	2929
122950	2872
122966	2805
122983	2735
123000	2671
123016	2617
123033	2576
123050	2548
123066	2531
123083	2523
123100	2520
123116	2521
123133	2523
123150	2525
123166	2527
123183	2529
123200	2530
123216	2531
123233	2533
123250	2534
123266	2535
123283	2536
123300	2538
123316	2540
123333	2542
123350	2544
123366	2547
123383	2552
123400	2557
123416	2565
123433	2575
123450	2588
123466	2604
123483	2622
123500	2643
123516	2666
123533	2689
123550	2713
123566	2736
123583	2757
123600	2776
123616	2793
123633	2807
123650	2818
123666	2827
123683	2832
123700	2835
123716	2835
123733	2832
123750	2825
123766	2815
123783	2802
123800	2786
123816	2768
123833	2747
123850	2724
123866	2701
123883	2678
123900	2655
123916	2633
123933	2613
123950	2596
123966	2581
123983	2569
124000	2560
124016	2553
124033	2548
124050	2545
124066	2543
124083	2543
124100	2542
124116	2542
124133	2542
124150	2542
124166	2543
124183	2543
124200	2544
124216	2545
124233	2546
124250	2547
124266	2548
124283	2549
124300	2550
124316	2551
124333	2552
124350	2552
124366	2553
124383	2554
124400	2554
124416	2555
124433	2556
124450	2556
124466	2557
124483	2558
124500	2558
124516	2558
124533	2559
124550	2559
124566	2559
124583	2559
124600	2559
124616	2560
124633	2560
124650	2560
124666	2561
124683	2561
124700	2562
124716	2563
124733	2563
124750	2564
124766	2564
124783	2565
124800	2565
124816	2566
124833	2567
124850	2568
124866	2569
124883	2570
124900	2571
124916	2571
124933	2572
124950	2573
124966	2574
124983	2575
125000	2575
125016	2576
125033	2577
125050	2577
125066	2578
125083	2578
125100	2578
125116	2579
125133	2579
125150	2580
125166	2581
125183	2582
125200	2583
125216	2584
125233	2586
125250	2587
125266	2587
125283	2588
125300	2589
125316	2590
125333	2590
125350	2591
125366	2592
125383	2592
125400	2593
125416	2594
125433	2594
125450	2595
125466	2597
125483	2599
125500	2603
125516	2608
125533	2616
125550	2625
125566	2636
125583	2647
125600	2659
125616	2671
125633	2681
125650	2690
125666	2695
125683	2698
125700	2697
125716	2692
125733	2684
125750	2674
125766	2661
125783	2648
125800	2635
125816	2623
125833	2613
125850	2604
125866	2597
125883	2592
125900	2588
125916	2586
125933	2586
125950	2586
125966	2586
125983	2586
126000	2585
126016	2585
126033	2586
126050	2588
126066	2594
126083	2607
126100	2628
126116	2659
126133	2701
126150	2751
126166	2807
126183	2860
126200	2904
126216	2933
126233	2941
126250	2927
126266	2892
126283	2842
126300	2783
126316	2722
126333	2667
126350	2621
126366	2587
126383	2563
126400	2549
126416	2543
126433	2541
126450	2541
126466	2542
126483	2544
126500	2546
126516	2547
126533	2548
126550	2549
126566	2551
126583	2552
126600	2553
126616	2554
126633	2556
126650	2558
126666	2560
126683	2562
126700	2564
126716	2568
126733	2572
126750	2578
126766	2585
126783	2594
126800	2605
126816	2619
126833	2635
126850	2652
126866	2671
126883	2691
126900	2711
126916	2731
126933	2750
126950	2767
126966	2782
126983	2795
127000	2806
127016	2814
127033	2819
127050	2822
127066	2821
127083	2818
127100	2812
127116	2802
127133	2789
127150	2772
127166	2753
127183	2732
127200	2708
127216	2683
127233	2658
127250	2633
127266	2608
127283	2586
127300	2565
127316	2548
127333	2534
127350	2523
127366	2514
127383	2508
127400	2504
127416	2501
127433	2499
127450	2498
127466	2497
127483	2496
127500	2495
127516	2494
127533	2494
127550	2495
127566	2495
127583	2497
127600	2499
127616	2500
127633	2502
127650	2504
127666	2506
127683	2508
127700	2509
127716	2510
127733	2512
127750	2513
127766	2514
127783	2516
127800	2517
127816	2518
127833	2520
127850	2521
127866	2523
127883	2524
127900	2526
127916	2528
127933	2529
127950	2531
127966	2533
127983	2534
128000	2536
128016	2538
128033	2539
128050	2541
128066	2543
128083	2545
128100	2546
128116	2548
128133	2550
128150	2551
128166	2553
128183	2555
128200	2556
128216	2558
128233	2560
128250	2562
128266	2563
128283	2565
128300	2567
128316	2570
128333	2572
128350	2574
128366	2576
128383	2578
128400	2580
128416	2581
128433	2582
128450	2583
128466	2584
128483	2585
128500	2585
128516	2586
128533	2586
128550	2587
128566	2587
128583	2588
128600	2588
128616	2589
128633	2589
128650	2590
128666	2590
128683	2590
128700	2591
128716	2591
128733	2591
128750	2592
128766	2592
128783	2593
128800	2595
128816	2597
128833	2601
128850	2605
128866	2611
128883	2619
128900	2627
128916	2636
128933	2645
128950	2654
128966	2662
128983	2668
129000	2671
129016	2672
129033	2671
129050	2666
129066	2659
129083	2651
129100	2641
129116	2630
129133	2620
129150	2611
129166	2602
129183	2596
129200	2591
129216	2587
129233	2584
129250	2583
129266	2583
129283	2583
129300	2584
129316	2584
129333	2585
129350	2586
129366	2588
129383	2591
129400	2598
129416	2610
129433	2630
129450	2660
129466	2699
129483	2745
129500	2795
129516	2844
129533	2884
129550	2910
129566	2917
129583	2904
129600	2873
129616	2827
129633	2773
129650	2718
129666	2667
129683	2625
129700	2593
129716	2572
129733	2560
129750	2553
129766	2551
129783	2551
129800	2552
129816	2553
129833	2554
129850	2555
129866	2555
129883	2556
129900	2557
129916	2557
129933	2559
129950	2560
129966	2561
129983	2562
130000	2563
130016	2564
130033	2566
130050	2568
130066	2571
130083	2576
130100	2582
130116	2591
130133	2602
130150	2615
130166	2630
130183	2647
130200	2665
130216	2684
130233	2702
130250	2720
130266	2737
130283	2752
130300	2765
130316	2776
130333	2785
130350	2792
130366	2796
130383	2798
130400	2798
130416	2794
130433	2788
130450	2778
130466	2766
130483	2751
130500	2733
130516	2714
130533	2692
130550	2669
130566	2646
130583	2623
130600	2600
130616	2579
130633	2561
130650	2545
130666	2532
130683	2523
130700	2516
130716	2511
130733	2509
130750	2508
130766	2508
130783	2508
130800	2509
130816	2510
130833	2511
130850	2513
130866	2514
130883	2516
130900	2517
130916	2519
130933	2521
130950	2523
130966	2524
130983	2526
131000	2527
131016	2529
131033	2530
131050	2532
131066	2533
131083	2535
131100	2536
131116	2537
131133	2538
131150	2539
131166	2540
131183	2541
131200	2542
131216	2542
131233	2543
131250	2544
131266	2545
131283	2547
131300	2548
131316	2549
131333	2550
131350	2551
131366	2552
131383	2553
131400	2554
131416	2555
131433	2556
131450	2557
131466	2558
131483	2559
131500	2560
131516	2561
131533	2561
131550	2562
131566	2563
131583	2564
131600	2565
131616	2566
131633	2567
131650	2568
131666	2569
131683	2569
131700	2570
131716	2570
131733	2571
131750	2572
131766	2572
131783	2573
131800	2574
131816	2575
131833	2577
131850	2578
131866	2581
131883	2583
131900	2585
131916	2587
131933	2589
131950	2592
131966	2594
131983	2596
132000	2597
132016	2599
132033	2599
132050	2600
132066	2600
132083	2601
132100	2601
132116	2602
132133	2605
132150	2609
132166	2615
132183	2624
132200	2636
132216	2651
132233	2669
132250	2688
132266	2708
132283	2726
132300	2743
132316	2756
132333	2764
132350	2766
132366	2763
132383	2754
132400	2740
132416	2722
132433	2701
132450	2679
132466	2658
132483	2638
132500	2620
132516	2607
132533	2596
132550	2589
132566	2585
132583	2583
132600	2583
132616	2584
132633	2585
132650	2586
132666	2586
132683	2586
132700	2588
132716	2591
132733	2598
132750	2612
132766	2635
132783	2668
132800	2712
132816	2763
132833	2818
132850	2870
132866	2913
132883	2941
132900	2948
132916	2933
132933	2899
132950	2849
132966	2791
132983	2732
133000	2678
133016	2634
133033	2602
133050	2582
133066	2570
133083	2565
133100	2564
133116	2565
133133	2567
133150	2568
133166	2568
133183	2568
133200	2568
133216	2568
133233	2568
133250	2569
133266	2569
133283	2569
133300	2569
133316	2569
133333	2570
133350	2571
133366	2572
133383	2575
133400	2578
133416	2582
133433	2588
133450	2596
133466	2604
133483	2614
133500	2626
133516	2638
133533	2651
133550	2665
133566	2678
133583	2691
133600	2704
133616	2716
133633	2726
133650	2735
133666	2743
133683	2748
133700	2752
133716	2754
133733	2753
133750	2750
133766	2744
133783	2736
133800	2726
133816	2714
133833	2700
133850	2684
133866	2666
133883	2648
133900	2629
133916	2611
133933	2593
133950	2577
133966	2563
133983	2552
134000	2543
134016	2536
134033	2531
134050	2528
134066	2526
134083	2525
134100	2524
134116	2524
134133	2525
134150	2525
134166	2526
134183	2527
134200	2528
134216	2529
134233	2530
134250	2531
134266	2533
134283	2534
134300	2535
134316	2536
134333	2537
134350	2538
134366	2539
134383	2540
134400	2541
134416	2542
134433	2543
134450	2543
134466	2544
134483	2545
134500	2546
134516	2547
134533	2548
134550	2549
134566	2550
134583	2552
134600	2553
134616	2553
134633	2554
134650	2555
134666	2556
134683	2556
134700	2557
134716	2558
134733	2559
134750	2559
134766	2560
134783	2562
134800	2563
134816	2564
134833	2565
134850	2566
134866	2567
134883	2568
134900	2568
134916	2568
134933	2569
134950	2569
134966	2569
134983	2569
135000	2570
135016	2570
135033	2571
135050	2572
135066	2573
135083	2573
135100	2574
135116	2575
135133	2575
135150	2575
135166	2576
135183	2577
135200	2578
135216	2580
135233	2581
135250	2583
135266	2584
135283	2585
135300	2586
135316	2587
135333	2587
135350	2588
135366	2589
135383	2590
135400	2591
135416	2592
135433	2594
135450	2595
135466	2598
135483	2601
135500	2606
135516	2612
135533	2621
135550	2631
135566	2643
135583	2656
135600	2670
135616	2683
135633	2695
135650	2704
135666	2709
135683	2711
135700	2709
135716	2703
135733	2693
135750	2681
135766	2667
135783	2652
135800	2638
135816	2625
135833	2614
135850	2605
135866	2598
135883	2593
135900	2590
135916	2589
135933	2588
135950	2588
135966	2589
135983	2590
136000	2590
136016	2591
136033	2592
136050	2597
136066	2606
136083	2622
136100	2650
136116	2689
136133	2740
136150	2801
136166	2865
136183	2926
136200	2974
136216	3003
136233	3005
136250	2982
136266	2935
136283	2872
136300	2800
136316	2729
136333	2666
136350	2615
136366	2579
136383	2556
136400	2543
136416	2537
136433	2535
136450	2536
136466	2536
136483	2537
136500	2538
136516	2538
136533	2538
136550	2539
136566	2541
136583	2542
136600	2544
136616	2546
136633	2548
136650	2551
136666	2553
136683	2555
136700	2558
136716	2563
136733	2568
136750	2577
136766	2588
136783	2603
136800	2621
136816	2642
136833	2666
136850	2691
136866	2717
136883	2742
136900	2766
136916	2788
136933	2808
136950	2825
136966	2839
136983	2849
137000	2857
137016	2862
137033	2863
137050	2862
137066	2857
137083	2850
137100	2839
137116	2824
137133	2807
137150	2786
137166	2763
137183	2738
137200	2712
137216	2685
137233	2658
137250	2633
137266	2610
137283	2589
137300	2572
137316	2558
137333	2548
137350	2540
137366	2536
137383	2534
137400	2533
137416	2534
137433	2535
137450	2537
137466	2539
137483	2541
137500	2543
137516	2544
137533	2545
137550	2546
137566	2547
137583	2548
137600	2548
137616	2549
137633	2550
137650	2550
137666	2551
137683	2552
137700	2552
137716	2553
137733	2554
137750	2554
137766	2555
137783	2556
137800	2557
137816	2557
137833	2558
137850	2559
137866	2560
137883	2561
137900	2561
137916	2562
137933	2563
137950	2563
137966	2564
137983	2564
138000	2565
138016	2565
138033	2566
138050	2566
138066	2566
138083	2567
138100	2568
138116	2568
138133	2569
138150	2570
138166	2570
138183	2571
138200	2572
138216	2572
138233	2573
138250	2573
138266	2574
138283	2574
138300	2575
138316	2576
138333	2576
138350	2577
138366	2578
138383	2578
138400	2579
138416	2580
138433	2581
138450	2582
138466	2583
138483	2584
138500	2584
138516	2585
138533	2585
138550	2585
138566	2585
138583	2585
138600	2585
138616	2585
138633	2586
138650	2586
138666	2587
138683	2587
138700	2588
138716	2588
138733	2589
138750	2589
138766	2590
138783	2592
138800	2594
138816	2597
138833	2601
138850	2607
138866	2614
138883	2624
138900	2635
138916	2647
138933	2659
138950	2671
138966	2681
138983	2689
139000	2694
139016	2695
139033	2692
139050	2686
139066	2678
139083	2666
139100	2654
139116	2640
139133	2627
139150	2615
139166	2605
139183	2597
139200	2591
139216	2587
139233	2585
139250	2584
139266	2584
139283	2584
139300	2585
139316	2585
139333	2585
139350	2586
139366	2587
139383	2591
139400	2600
139416	2616
139433	2642
139450	2680
139466	2728
139483	2784
139500	2842
139516	2894
139533	2934
139550	2954
139566	2951
139583	2925
139600	2879
139616	2820
139633	2756
139650	2695
139666	2642
139683	2601
139700	2571
139716	2554
139733	2544
139750	2540
139766	2540
139783	2541
139800	2542
139816	2543
139833	2545
139850	2545
139866	2546
139883	2546
139900	2547
139916	2547
139933	2548
139950	2549
139966	2550
139983	2552
140000	2554
140016	2556
140033	2559
140050	2563
140066	2568
140083	2575
140100	2584
140116	2595
140133	2608
140150	2624
140166	2641
140183	2659
140200	2678
140216	2698
140233	2717
140250	2735
140266	2752
140283	2768
140300	2781
140316	2793
140333	2801
140350	2808
140366	2812
140383	2813
140400	2810
140416	2805
140433	2796
140450	2785
140466	2770
140483	2752
140500	2732
140516	2710
140533	2687
140550	2663
140566	2638
140583	2615
140600	2592
140616	2572
140633	2554
140650	2539
140666	2527
140683	2518
140700	2511
140716	2507
140733	2504
140750	2502
140766	2500
140783	2499
140800	2499
140816	2498
140833	2498
140850	2497
140866	2496
140883	2496
140900	2495
140916	2495
140933	2495
140950	2496
140966	2498
140983	2499
141000	2502
141016	2504
141033	2507
141050	2509
141066	2512
141083	2514
141100	2516
141116	2517
141133	2519
141150	2521
141166	2523
141183	2525
141200	2527
141216	2529
141233	2531
141250	2534
141266	2536
141283	2539
141300	2541
141316	2543
141333	2544
141350	2546
141366	2547
141383	2548
141400	2549
141416	2550
141433	2551
141450	2552
141466	2553
141483	2555
141500	2556
141516	2558
141533	2561
141550	2563
141566	2565
141583	2568
141600	2570
141616	2573
141633	2575
141650	2576
141666	2578
141683	2580
141700	2581
141716	2582
141733	2583
141750	2583
141766	2583
141783	2584
141800	2584
141816	2584
141833	2585
141850	2585
141866	2586
141883	2586
141900	2587
141916	2587
141933	2587
141950	2587
141966	2588
141983	2588
142000	2589
142016	2590
142033	2591
142050	2591
142066	2592
142083	2593
142100	2594
142116	2595
142133	2598
142150	2601
142166	2605
142183	2611
142200	2617
142216	2625
142233	2634
142250	2643
142266	2653
142283	2661
142300	2669
142316	2674
142333	2677
142350	2677
142366	2674
142383	2669
142400	2661
142416	2652
142433	2642
142450	2632
142466	2622
142483	2613
142500	2605
142516	2599
142533	2595
142550	2592
142566	2590
142583	2589
142600	2589
142616	2590
142633	2590
142650	2590
142666	2590
142683	2590
142700	2592
142716	2596
142733	2606
142750	2624
142766	2651
142783	2690
142800	2739
142816	2793
142833	2848
142850	2896
142866	2929
142883	2943
142900	2933
142916	2902
142933	2854
142950	2796
142966	2735
142983	2678
143000	2631
143016	2595
143033	2571
143050	2556
143066	2549
143083	2547
143100	2548
143116	2549
143133	2551
143150	2553
143166	2554
143183	2555
143200	2555
143216	2556
143233	2556
143250	2556
143266	2556
143283	2557
143300	2558
143316	2559
143333	2560
143350	2562
143366	2565
143383	2569
143400	2574
143416	2580
143433	2589
143450	2599
143466	2612
143483	2626
143500	2642
143516	2659
143533	2678
143550	2696
143566	2713
143583	2730
143600	2745
143616	2759
143633	2770
143650	2780
143666	2787
143683	2792
143700	2795
143716	2795
143733	2792
143750	2787
143766	2779
143783	2768
143800	2755
143816	2739
143833	2720
143850	2700
143866	2678
143883	2655
143900	2633
143916	2610
143933	2590
143950	2571
143966	2554
143983	2541
144000	2530
144016	2521
144033	2515
144050	2511
144066	2509
144083	2508
144100	2507
144116	2507
144133	2508
144150	2509
144166	2510
144183	2510
144200	2511
144216	2512
144233	2513
144250	2513
144266	2514
144283	2515
144300	2516
144316	2517
144333	2519
144350	2520
144366	2522
144383	2523
144400	2525
144416	2527
144433	2529
144450	2531
144466	2533
144483	2535
144500	2536
144516	2538
144533	2539
144550	2540
144566	2542
144583	2543
144600	2544
144616	2545
144633	2545
144650	2546
144666	2546
144683	2547
144700	2547
144716	2548
144733	2549
144750	2550
144766	2552
144783	2554
144800	2556
144816	2558
144833	2560
144850	2561
144866	2563
144883	2565
144900	2566
144916	2567
144933	2568
144950	2569
144966	2569
144983	2570
145000	2571
145016	2572
145033	2573
145050	2575
145066	2576
145083	2578
145100	2580
145116	2583
145133	2585
145150	2588
145166	2590
145183	2591
145200	2593
145216	2594
145233	2594
145250	2594
145266	2594
145283	2594
145300	2594
145316	2593
145333	2594
145350	2594
145366	2594
145383	2595
145400	2596
145416	2597
145433	2598
145450	2601
145466	2605
145483	2611
145500	2619
145516	2630
145533	2643
145550	2659
145566	2677
145583	2695
145600	2714
145616	2731
145633	2745
145650	2755
145666	2761
145683	2761
145700	2756
145716	2746
145733	2731
145750	2714
145766	2694
145783	2673
145800	2654
145816	2636
145833	2621
145850	2609
145866	2600
145883	2594
145900	2591
145916	2589
145933	2588
145950	2588
145966	2588
145983	2588
146000	2588
146016	2589
146033	2592
146050	2598
146066	2611
146083	2632
146100	2664
146116	2706
146133	2757
146150	2813
146166	2867
146183	2913
146200	2944
146216	2954
146233	2943
146250	2911
146266	2864
146283	2807
146300	2749
146316	2696
146333	2650
146350	2615
146366	2591
146383	2575
146400	2567
146416	2563
146433	2562
146450	2562
146466	2563
146483	2563
146500	2564
146516	2564
146533	2565
146550	2565
146566	2566
146583	2566
146600	2567
146616	2568
146633	2568
146650	2569
146666	2569
146683	2570
146700	2572
146716	2574
146733	2578
146750	2583
146766	2590
146783	2599
146800	2610
146816	2622
146833	2635
146850	2650
146866	2665
146883	2680
146900	2695
146916	2709
146933	2722
146950	2734
146966	2744
146983	2752
147000	2759
147016	2763
147033	2765
147050	2765
147066	2763
147083	2758
147100	2751
147116	2742
147133	2729
147150	2715
147166	2699
147183	2681
147200	2662
147216	2642
147233	2622
147250	2603
147266	2585
147283	2569
147300	2556
147316	2545
147333	2536
147350	2530
147366	2525
147383	2523
147400	2521
147416	2521
147433	2521
147450	2522
147466	2523
147483	2524
147500	2525
147516	2526
147533	2527
147550	2529
147566	2530
147583	2531
147600	2532
147616	2533
147633	2534
147650	2534
147666	2535
147683	2536
147700	2536
147716	2537
147733	2537
147750	2538
147766	2539
147783	2540
147800	2541
147816	2542
147833	2544
147850	2545
147866	2547
147883	2548
147900	2549
147916	2550
147933	2552
147950	2553
147966	2553
147983	2554
148000	2555
148016	2556
148033	2557
148050	2557
148066	2558
148083	2559
148100	2559
148116	2560
148133	2560
148150	2561
148166	2561
148183	2562
148200	2563
148216	2564
148233	2565
148250	2566
148266	2567
148283	2569
148300	2570
148316	2571
148333	2572
148350	2573
148366	2574
148383	2575
148400	2576
148416	2578
148433	2579
148450	2580
148466	2581
148483	2581
148500	2582
148516	2582
148533	2583
148550	2583
148566	2584
148583	2585
148600	2586
148616	2587
148633	2588
148650	2589
148666	2590
148683	2591
148700	2592
148716	2593
148733	2594
148750	2596
148766	2597
148783	2599
148800	2602
148816	2606
148833	2612
148850	2619
148866	2628
148883	2639
148900	2651
148916	2664
148933	2677
148950	2689
148966	2699
148983	2706
149000	2709
149016	2709
149033	2704
149050	2695
149066	2684
149083	2670
149100	2656
149116	2641
149133	2628
149150	2615
149166	2605
149183	2597
149200	2591
149216	2587
149233	2584
149250	2583
149266	2583
149283	2583
149300	2583
149316	2584
149333	2584
149350	2585
149366	2588
149383	2595
149400	2609
149416	2630
149433	2662
149450	2705
149466	2757
149483	2813
149500	2868
149516	2914
149533	2945
149550	2956
149566	2944
149583	2911
149600	2860
149616	2799
149633	2734
149650	2673
149666	2621
149683	2580
149700	2551
149716	2534
149733	2525
149750	2521
149766	2520
149783	2521
149800	2523
149816	2524
149833	2526
149850	2527
149866	2528
149883	2529
149900	2530
149916	2531
149933	2532
149950	2533
149966	2535
149983	2537
150000	2539
150016	2543
150033	2548
150050	2555
150066	2564
150083	2575
150100	2589
150116	2606
150133	2624
150150	2644
150166	2664
150183	2685
150200	2706
150216	2725
150233	2744
150250	2760
150266	2775
150283	2787
150300	2798
150316	2806
150333	2811
150350	2813
150366	2813
150383	2809
150400	2802
150416	2792
150433	2780
150450	2764
150466	2747
150483	2728
150500	2707
150516	2686
150533	2665
150550	2644
150566	2625
150583	2607
150600	2591
150616	2577
150633	2566
150650	2557
150666	2549
150683	2544
150700	2541
150716	2539
150733	2538
150750	2537
150766	2537
150783	2537
150800	2538
150816	2539
150833	2539
150850	2540
150866	2541
150883	2541
150900	2542
150916	2542
150933	2543
150950	2543
150966	2544
150983	2545
151000	2545
151016	2546
151033	2546
151050	2547
151066	2547
151083	2548
151100	2549
151116	2549
151133	2550
151150	2551
151166	2551
151183	2552
151200	2552
151216	2553
151233	2553
151250	2554
151266	2555
151283	2556
151300	2557
151316	2558
151333	2559
151350	2560
151366	2561
151383	2561
151400	2562
151416	2563
151433	2564
151450	2565
151466	2567
151483	2568
151500	2569
151516	2571
151533	2572
151550	2573
151566	2573
151583	2574
151600	2574
151616	2575
151633	2575
151650	2576
151666	2576
151683	2577
151700	2578
151716	2579
151733	2580
151750	2580
151766	2581
151783	2582
151800	2582
151816	2582
151833	2583
151850	2583
151866	2583
151883	2584
151900	2584
151916	2585
151933	2586
151950	2586
151966	2587
151983	2589
152000	2590
152016	2591
152033	2592
152050	2593
152066	2594
152083	2595
152100	2596
152116	2597
152133	2599
152150	2603
152166	2609
152183	2616
152200	2626
152216	2637
152233	2650
152250	2663
152266	2675
152283	2686
152300	2695
152316	2700
152333	2702
152350	2700
152366	2694
152383	2686
152400	2675
152416	2662
152433	2648
152450	2634
152466	2622
152483	2611
152500	2602
152516	2595
152533	2590
152550	2587
152566	2585
152583	2584
152600	2584
152616	2584
152633	2584
152650	2584
152666	2584
152683	2585
152700	2587
152716	2593
152733	2605
152750	2625
152766	2656
152783	2697
152800	2747
152816	2802
152833	2856
152850	2902
152866	2932
152883	2943
152900	2930
152916	2896
152933	2846
152950	2786
152966	2725
152983	2668
153000	2621
153016	2585
153033	2561
153050	2547
153066	2540
153083	2538
153100	2538
153116	2540
153133	2542
153150	2544
153166	2546
153183	2548
153200	2550
153216	2551
153233	2552
153250	2554
153266	2554
153283	2555
153300	2556
153316	2557
153333	2558
153350	2560
153366	2563
153383	2567
153400	2572
153416	2580
153433	2590
153450	2602
153466	2617
153483	2634
153500	2654
153516	2675
153533	2697
153550	2720
153566	2743
153583	2764
153600	2784
153616	2803
153633	2819
153650	2833
153666	2844
153683	2852
153700	2857
153716	2858
153733	2855
153750	2849
153766	2839
153783	2826
153800	2808
153816	2787
153833	2763
153850	2736
153866	2707
153883	2676
153900	2644
153916	2613
153933	2584
153950	2557
153966	2534
153983	2516
154000	2501
154016	2491
154033	2484
154050	2480
154066	2478
154083	2478
154100	2479
154116	2480
154133	2482
154150	2483
154166	2484
154183	2485
154200	2486
154216	2488
154233	2490
154250	2492
154266	2494
154283	2497
154300	2500
154316	2502
154333	2505
154350	2508
154366	2511
154383	2514
154400	2516
154416	2519
154433	2522
154450	2525
154466	2528
154483	2530
154500	2533
154516	2536
154533	2539
154550	2543
154566	2546
154583	2549
154600	2552
154616	2555
154633	2557
154650	2560
154666	2562
154683	2563
154700	2565
154716	2567
154733	2568
154750	2569
154766	2570
154783	2571
154800	2572
154816	2573
154833	2574
154850	2575
154866	2576
154883	2577
154900	2577
154916	2578
154933	2578
154950	2578
154966	2578
154983	2579
155000	2579
155016	2580
155033	2580
155050	2581
155066	2581
155083	2582
155100	2582
155116	2582
155133	2583
155150	2583
155166	2584
155183	2585
155200	2585
155216	2586
155233	2586
155250	2587
155266	2587
155283	2588
155300	2588
155316	2588
155333	2588
155350	2588
155366	2588
155383	2589
155400	2589
155416	2590
155433	2591
155450	2593
155466	2596
155483	2600
155500	2605
155516	2612
155533	2620
155550	2629
155566	2639
155583	2650
155600	2660
155616	2668
155633	2675
155650	2680
155666	2681
155683	2680
155700	2675
155716	2668
155733	2659
155750	2648
155766	2637
155783	2626
155800	2616
155816	2607
155833	2600
155850	2595
155866	2591
155883	2589
155900	2588
155916	2587
155933	2587
155950	2587
155966	2587
155983	2587
156000	2587
156016	2587
156033	2590
156050	2596
156066	2609
156083	2629
156100	2660
156116	2701
156133	2750
156150	2803
156166	2855
156183	2898
156200	2926
156216	2933
156233	2918
156250	2883
156266	2833
156283	2774
156300	2715
156316	2662
156333	2618
156350	2586
156366	2565
156383	2553
156400	2548
156416	2546
156433	2546
156450	2547
156466	2548
156483	2548
156500	2549
156516	2549
156533	2550
156550	2550
156566	2551
156583	2551
156600	2552
156616	2553
156633	2555
156650	2556
156666	2558
156683	2560
156700	2564
156716	2568
156733	2574
156750	2582
156766	2591
156783	2603
156800	2618
156816	2634
156833	2652
156850	2671
156866	2690
156883	2710
156900	2728
156916	2745
156933	2761
156950	2774
156966	2785
156983	2794
157000	2800
157016	2804
157033	2806
157050	2804
157066	2799
157083	2792
157100	2782
157116	2768
157133	2752
157150	2734
157166	2713
157183	2691
157200	2667
157216	2643
157233	2620
157250	2597
157266	2576
157283	2558
157300	2542
157316	2530
157333	2520
157350	2513
157366	2508
157383	2505
157400	2504
157416	2504
157433	2505
157450	2506
157466	2508
157483	2509
157500	2511
157516	2512
157533	2513
157550	2515
157566	2516
157583	2518
157600	2519
157616	2521
157633	2522
157650	2523
157666	2525
157683	2526
157700	2527
157716	2528
157733	2529
157750	2530
157766	2531
157783	2533
157800	2534
157816	2535
157833	2536
157850	2538
157866	2539
157883	2541
157900	2543
157916	2545
157933	2546
157950	2548
157966	2549
157983	2550
158000	2552
158016	2553
158033	2554
158050	2554
158066	2555
158083	2556
158100	2556
158116	2557
158133	2558
158150	2559
158166	2560
158183	2561
158200	2562
158216	2563
158233	2564
158250	2565
158266	2566
158283	2567
158300	2568
158316	2569
158333	2570
158350	2572
158366	2573
158383	2574
158400	2575
158416	2576
158433	2577
158450	2578
158466	2579
158483	2580
158500	2581
158516	2583
158533	2584
158550	2585
158566	2586
158583	2588
158600	2589
158616	2590
158633	2590
158650	2591
158666	2592
158683	2592
158700	2593
158716	2594
158733	2596
158750	2598
158766	2601
158783	2604
158800	2609
158816	2615
158833	2623
158850	2632
158866	2644
158883	2657
158900	2670
158916	2684
158933	2696
158950	2706
158966	2713
158983	2715
159000	2714
159016	2709
159033	2700
159050	2688
159066	2675
159083	2660
159100	2646
159116	2632
159133	2621
159150	2611
159166	2604
159183	2598
159200	2595
159216	2593
159233	2592
159250	2591
159266	2591
159283	2591
159300	2591
159316	2591
159333	2591
159350	2592
159366	2595
159383	2602
159400	2615
159416	2638
159433	2671
159450	2714
159466	2767
159483	2824
159500	2877
159516	2920
159533	2945
159550	2948
159566	2928
159583	2888
159600	2833
159616	2772
159633	2712
159650	2660
159666	2619
159683	2589
159700	2571
159716	2561
159733	2556
159750	2555
159766	2556
159783	2556
159800	2557
159816	2559
159833	2560
159850	2561
159866	2562
159883	2563
159900	2564
159916	2565
159933	2566
159950	2567
159966	2568
159983	2569
160000	2570
160016	2572
160033	2574
160050	2577
160066	2581
160083	2587
160100	2595
160116	2605
160133	2616
160150	2630
160166	2645
160183	2661
160200	2678
160216	2694
160233	2710
160250	2724
160266	2738
160283	2749
160300	2759
160316	2767
160333	2773
160350	2776
160366	2777
160383	2776
160400	2772
160416	2766
160433	2756
160450	2744
160466	2730
160483	2714
160500	2695
160516	2676
160533	2655
160550	2635
160566	2614
160583	2594
160600	2576
160616	2560
160633	2546
160650	2535
160666	2526
160683	2521
160700	2517
160716	2514
160733	2513
160750	2513
160766	2514
160783	2514
160800	2515
160816	2516
160833	2517
160850	2518
160866	2519
160883	2521
160900	2522
160916	2524
160933	2525
160950	2527
160966	2528
160983	2529
161000	2530
161016	2531
161033	2533
161050	2534
161066	2535
161083	2536
161100	2538
161116	2539
161133	2541
161150	2542
161166	2544
161183	2545
161200	2546
161216	2547
161233	2548
161250	2549
161266	2549
161283	2550
161300	2550
161316	2551
161333	2552
161350	2553
161366	2554
161383	2555
161400	2556
161416	2557
161433	2558
161450	2559
161466	2559
161483	2560
161500	2560
161516	2560
161533	2561
161550	2562
161566	2562
161583	2563
161600	2564
161616	2565
161633	2566
161650	2567
161666	2568
161683	2569
161700	2569
161716	2570
161733	2571
161750	2572
161766	2573
161783	2574
161800	2575
161816	2577
161833	2578
161850	2579
161866	2580
161883	2581
161900	2582
161916	2582
161933	2582
161950	2582
161966	2582
161983	2583
162000	2583
162016	2584
162033	2586
162050	2587
162066	2589
162083	2591
162100	2593
162116	2595
162133	2599
162150	2604
162166	2611
162183	2620
162200	2631
162216	2643
162233	2657
162250	2671
162266	2685
162283	2697
162300	2707
162316	2713
162333	2715
162350	2713
162366	2707
162383	2697
162400	2684
162416	2670
162433	2654
162450	2639
162466	2625
162483	2613
162500	2603
162516	2596
162533	2591
162550	2588
162566	2586
162583	2585
162600	2584
162616	2584
162633	2584
162650	2584
162666	2583
162683	2584
162700	2588
162716	2597
162733	2615
162750	2644
162766	2685
162783	2739
162800	2801
162816	2865
162833	2923
162850	2967
162866	2988
162883	2985
162900	2955
162916	2903
162933	2837
162950	2766
162966	2697
162983	2638
163000	2591
163016	2558
163033	2538
163050	2527
163066	2523
163083	2523
163100	2525
163116	2527
163133	2530
163150	2532
163166	2533
163183	2535
163200	2537
163216	2538
163233	2540
163250	2543
163266	2545
163283	2548
163300	2551
163316	2554
163333	2557
163350	2561
163366	2566
163383	2571
163400	2578
163416	2586
163433	2595
163450	2605
163466	2617
163483	2631
163500	2646
163516	2661
163533	2678
163550	2694
163566	2710
163583	2726
163600	2740
163616	2752
163633	2762
163650	2770
163666	2776
163683	2778
163700	2777
163716	2773
163733	2766
163750	2756
163766	2744
163783	2729
163800	2714
163816	2696
163833	2678
163850	2660
163866	2642
163883	2624
163900	2607
163916	2592
163933	2578
163950	2566
163966	2556
163983	2548
164000	2542
164016	2538
164033	2535
164050	2534
164066	2533
164083	2533
164100	2533
164116	2534
164133	2535
164150	2536
164166	2537
164183	2538
164200	2540
164216	2541
164233	2542
164250	2543
164266	2544
164283	2545
164300	2545
164316	2546
164333	2546
164350	2547
164366	2548
164383	2548
164400	2550
164416	2551
164433	2552
164450	2553
164466	2554
164483	2555
164500	2556
164516	2557
164533	2558
164550	2559
164566	2559
164583	2560
164600	2560
164616	2560
164633	2561
164650	2561
164666	2561
164683	2562
164700	2563
164716	2563
164733	2564
164750	2565
164766	2566
164783	2566
164800	2567
164816	2568
164833	2569
164850	2570
164866	2570
164883	2571
164900	2572
164916	2572
164933	2573
164950	2574
164966	2575
164983	2575
165000	2576
165016	2577
165033	2578
165050	2579
165066	2579
165083	2580
165100	2581
165116	2581
165133	2582
165150	2583
165166	2584
165183	2584
165200	2585
165216	2586
165233	2586
165250	2587
165266	2587
165283	2588
165300	2588
165316	2589
165333	2590
165350	2591
165366	2591
165383	2592
165400	2593
165416	2595
165433	2597
165450	2600
165466	2604
165483	2610
165500	2617
165516	2626
165533	2637
165550	2649
165566	2662
165583	2675
165600	2687
165616	2697
165633	2705
165650	2709
165666	2710
165683	2706
165700	2699
165716	2689
165733	2676
165750	2662
165766	2648
165783	2634
165800	2622
165816	2611
165833	2603
165850	2597
165866	2592
165883	2590
165900	2588
165916	2587
165933	2587
165950	2587
165966	2587
165983	2586
166000	2586
166016	2587
166033	2592
166050	2601
166066	2619
166083	2648
166100	2689
166116	2741
166133	2800
166150	2861
166166	2915
166183	2955
166200	2974
166216	2969
166233	2939
166250	2890
166266	2829
166283	2763
166300	2699
166316	2645
166333	2603
166350	2574
166366	2555
166383	2546
166400	2542
166416	2542
166433	2543
166450	2545
166466	2546
166483	2548
166500	2549
166516	2550
166533	2551
166550	2551
166566	2552
166583	2553
166600	2554
166616	2555
166633	2556
166650	2558
166666	2559
166683	2562
166700	2565
166716	2570
166733	2577
166750	2587
166766	2599
166783	2614
166800	2633
166816	2654
166833	2677
166850	2702
166866	2727
166883	2752
166900	2776
166916	2799
166933	2819
166950	2838
166966	2854
166983	2867
167000	2877
167016	2884
167033	2887
167050	2886
167066	2881
167083	2872
167100	2859
167116	2842
167133	2821
167150	2796
167166	2767
167183	2735
167200	2702
167216	2668
167233	2633
167250	2601
167266	2571
167283	2545
167300	2523
167316	2506
167333	2493
167350	2483
167366	2477
167383	2474
167400	2472
167416	2472
167433	2473
167450	2474
167466	2476
167483	2479
167500	2481
167516	2484
167533	2487
167550	2490
167566	2494
167583	2498
167600	2502
167616	2506
167633	2511
167650	2515
167666	2519
167683	2524
167700	2528
167716	2532
167733	2536
167750	2539
167766	2543
167783	2546
167800	2550
167816	2553
167833	2555
167850	2557
167866	2559
167883	2560
167900	2562
167916	2563
167933	2563
167950	2564
167966	2564
167983	2565
168000	2565
168016	2566
168033	2566
168050	2567
168066	2568
168083	2568
168100	2569
168116	2570
168133	2571
168150	2572
168166	2573
168183	2573
168200	2574
168216	2574
168233	2574
168250	2575
168266	2576
168283	2576
168300	2577
168316	2577
168333	2578
168350	2578
168366	2579
168383	2579
168400	2579
168416	2580
168433	2580
168450	2581
168466	2581
168483	2582
168500	2582
168516	2583
168533	2583
168550	2584
168566	2584
168583	2585
168600	2586
168616	2586
168633	2587
168650	2587
168666	2587
168683	2588
168700	2588
168716	2589
168733	2589
168750	2591
168766	2592
168783	2595
168800	2599
168816	2603
168833	2610
168850	2618
168866	2627
168883	2637
168900	2648
168916	2659
168933	2669
168950	2677
168966	2683
168983	2686
169000	2686
169016	2683
169033	2677
169050	2668
169066	2658
169083	2646
169100	2634
169116	2623
169133	2613
169150	2605
169166	2598
169183	2594
169200	2591
169216	2589
169233	2588
169250	2587
169266	2587
169283	2587
169300	2586
169316	2586
169333	2586
169350	2587
169366	2592
169383	2602
169400	2619
169416	2646
169433	2683
169450	2729
169466	2780
169483	2830
169500	2875
169516	2906
169533	2918
169550	2910
169566	2882
169583	2838
169600	2784
169616	2728
169633	2675
169650	2630
169666	2595
169683	2570
169700	2556
169716	2548
169733	2544
169750	2544
169766	2544
169783	2546
169800	2547
169816	2547
169833	2548
169850	2549
169866	2550
169883	2550
169900	2551
169916	2551
169933	2552
169950	2552
169966	2553
169983	2555
170000	2557
170016	2560
170033	2565
170050	2571
170066	2579
170083	2588
170100	2600
170116	2614
170133	2630
170150	2647
170166	2665
170183	2684
170200	2703
170216	2721
170233	2739
170250	2756
170266	2770
170283	2783
170300	2793
170316	2801
170333	2807
170350	2809
170366	2810
170383	2807
170400	2801
170416	2793
170433	2781
170450	2766
170466	2749
170483	2729
170500	2707
170516	2683
170533	2659
170550	2634
170566	2611
170583	2589
170600	2569
170616	2552
170633	2539
170650	2528
170666	2521
170683	2516
170700	2513
170716	2511
170733	2511
170750	2511
170766	2511
170783	2511
170800	2512
170816	2513
170833	2514
170850	2516
170866	2517
170883	2519
170900	2520
170916	2522
170933	2524
170950	2525
170966	2527
170983	2529
171000	2531
171016	2532
171033	2534
171050	2536
171066	2537
171083	2539
171100	2541
171116	2542
171133	2543
171150	2544
171166	2545
171183	2546
171200	2546
171216	2547
171233	2547
171250	2547
171266	2547
171283	2547
171300	2547
171316	2546
171333	2546
171350	2546
171366	2546
171383	2546
171400	2547
171416	2548
171433	2549
171450	2550
171466	2552
171483	2554
171500	2556
171516	2558
171533	2561
171550	2563
171566	2565
171583	2566
171600	2567
171616	2568
171633	2569
171650	2569
171666	2570
171683	2570
171700	2571
171716	2572
171733	2573
171750	2574
171766	2575
171783	2577
171800	2578
171816	2579
171833	2580
171850	2581
171866	2582
171883	2583
171900	2583
171916	2584
171933	2585
171950	2587
171966	2588
171983	2590
172000	2591
172016	2593
172033	2594
172050	2595
172066	2596
172083	2597
172100	2599
172116	2601
172133	2604
172150	2609
172166	2614
172183	2621
172200	2630
172216	2640
172233	2650
172250	2661
172266	2670
172283	2677
172300	2681
172316	2683
172333	2680
172350	2675
172366	2667
172383	2657
172400	2646
172416	2635
172433	2624
172450	2615
172466	2606
172483	2600
172500	2595
172516	2591
172533	2589
172550	2588
172566	2587
172583	2587
172600	2587
172616	2587
172633	2586
172650	2586
172666	2586
172683	2588
172700	2594
172716	2605
172733	2623
172750	2651
172766	2689
172783	2735
172800	2786
172816	2837
172833	2881
172850	2912
172866	2925
172883	2918
172900	2891
172916	2848
172933	2795
172950	2738
172966	2685
172983	2639
173000	2604
173016	2579
173033	2564
173050	2556
173066	2553
173083	2552
173100	2553
173116	2555
173133	2556
173150	2557
173166	2558
173183	2558
173200	2559
173216	2559
173233	2560
173250	2560
173266	2560
173283	2561
173300	2562
173316	2562
173333	2564
173350	2566
173366	2569
173383	2574
173400	2580
173416	2588
173433	2599
173450	2611
173466	2624
173483	2640
173500	2656
173516	2672
173533	2689
173550	2705
173566	2720
173583	2734
173600	2747
173616	2757
173633	2766
173650	2773
173666	2778
173683	2780
173700	2780
173716	2778
173733	2772
173750	2764
173766	2754
173783	2741
173800	2725
173816	2708
173833	2688
173850	2667
173866	2646
173883	2624
173900	2604
173916	2584
173933	2567
173950	2552
173966	2540
173983	2531
174000	2524
174016	2520
174033	2518
174050	2517
174066	2517
174083	2517
174100	2518
174116	2518
174133	2519
174150	2519
174166	2520
174183	2520
174200	2521
174216	2522
174233	2523
174250	2524
174266	2525
174283	2526
174300	2527
174316	2529
174333	2530
174350	2532
174366	2533
174383	2535
174400	2536
174416	2538
174433	2540
174450	2541
174466	2542
174483	2543
174500	2544
174516	2545
174533	2545
174550	2546
174566	2546
174583	2547
174600	2548
174616	2548
174633	2550
174650	2551
174666	2552
174683	2553
174700	2554
174716	2555
174733	2556
174750	2557
174766	2558
174783	2560
174800	2561
174816	2562
174833	2563
174850	2563
174866	2564
174883	2565
174900	2565
174916	2566
174933	2567
174950	2568
174966	2570
174983	2571
175000	2572
175016	2574
175033	2575
175050	2576
175066	2577
175083	2578
175100	2578
175116	2578
175133	2578
175150	2578
175166	2578
175183	2579
175200	2579
175216	2580
175233	2581
175250	2582
175266	2583
175283	2584
175300	2585
175316	2587
175333	2588
175350	2589
175366	2590
175383	2590
175400	2591
175416	2593
175433	2595
175450	2599
175466	2604
175483	2612
175500	2623
175516	2635
175533	2650
175550	2666
175566	2684
175583	2700
175600	2715
175616	2728
175633	2737
175650	2742
175666	2741
175683	2736
175700	2726
175716	2712
175733	2695
175750	2677
175766	2658
175783	2640
175800	2624
175816	2611
175833	2601
175850	2593
175866	2588
175883	2585
175900	2584
175916	2584
