0	0
1	2
2	32
3	199
4	719
5	1907
6	4036
7	7019
8	10381
9	13384
10	15530
11	16730
12	17250
13	17412
14	17440
15	17442
16	17442
17	17442
18	17443
19	17445
20	17447
21	17451
22	17455
23	17461
24	17465
25	17470
26	17473
27	17475
28	17476
29	17476
30	17476
31	17476
32	17478
33	17479
34	17454
35	17295
36	16785
37	15608
38	13493
39	10523
40	7175
41	4183
42	2048
43	856
44	342
45	184
46	159
47	159
48	161
49	162
50	162
51	162
52	160
53	157
54	153
55	148
56	144
57	139
58	136
59	134
60	133
61	133
62	133
63	133
64	132
65	129
66	124
67	116
68	106
69	95
70	82
71	69
72	55
73	44
74	34
75	26
76	20
77	15
78	12
79	10
80	9
81	8
82	7
83	6
84	5
85	4
86	4
87	4
88	4
89	4
90	4
91	4
92	5
93	5
94	6
95	6
96	6
97	6
98	7
99	7
100	7
101	8
102	9
103	10
104	10
105	11
106	11
107	12
108	12
109	12
110	12
111	13
112	13
113	13
114	13
115	13
116	13
117	14
118	14
119	14
120	14
121	14
122	14
123	13
124	13
125	12
126	12
127	11
128	11
129	10
130	10
131	9
132	8
133	8
134	7
135	5
136	4
137	4
138	3
139	3
140	3
141	4
142	5
143	5
144	6
145	6
146	6
147	5
148	6
149	6
150	8
151	11
152	14
153	19
154	23
155	27
156	29
157	31
158	33
159	34
160	34
161	34
162	34
163	34
164	34
165	34
166	34
167	34
168	34
169	34
170	35
171	37
172	41
173	52
174	71
175	96
176	126
177	152
178	168
179	173
180	173
181	175
182	190
183	217
184	251
185	287
186	315
187	334
188	344
189	347
190	348
191	348
192	347
193	347
194	347
195	348
196	348
197	348
198	348
199	348
200	349
201	349
202	348
203	346
204	341
205	330
206	311
207	285
208	256
209	230
210	213
211	208
212	208
213	204
214	189
215	160
216	124
217	86
218	57
219	37
220	28
221	25
222	25
223	26
224	27
225	28
226	28
227	28
228	28
229	28
230	28
231	27
232	28
233	29
234	30
235	33
236	38
237	44
238	52
239	60
240	68
241	76
242	83
243	88
244	92
245	94
246	95
247	95
248	93
249	91
250	88
251	85
252	83
253	80
254	78
255	77
256	76
257	75
258	75
259	75
260	75
261	75
262	75
263	75
264	74
265	74
266	72
267	69
268	64
269	59
270	51
271	44
272	35
273	27
274	20
275	15
276	11
277	8
278	7
279	6
280	5
281	5
282	5
283	5
284	5
285	5
286	6
287	6
288	6
289	7
290	7
291	7
292	7
293	7
294	7
295	7
296	7
297	7
298	6
299	6
300	5
301	5
302	5
303	4
304	4
305	4
306	4
307	4
308	5
309	5
310	5
311	5
312	5
313	5
314	5
315	5
316	5
317	4
318	4
319	4
320	4
321	3
322	3
323	3
324	3
325	3
326	3
327	4
328	4
329	4
330	4
331	4
332	4
333	4
334	5
335	5
336	6
337	8
338	11
339	15
340	19
341	24
342	30
343	34
344	38
345	40
346	40
347	40
348	40
349	40
350	42
351	45
352	50
353	55
354	59
355	63
356	65
357	67
358	67
359	67
360	67
361	66
362	66
363	66
364	66
365	66
366	66
367	65
368	64
369	62
370	61
371	62
372	72
373	94
374	137
375	198
376	267
377	325
378	363
379	374
380	374
381	385
382	428
383	506
384	603
385	699
386	776
387	827
388	855
389	866
390	868
391	869
392	869
393	869
394	870
395	871
396	872
397	873
398	874
399	875
400	875
401	875
402	874
403	869
404	855
405	827
406	780
407	714
408	642
409	582
410	544
411	533
412	534
413	524
414	482
415	404
416	308
417	212
418	138
419	91
420	69
421	64
422	68
423	73
424	79
425	83
426	85
427	85
428	85
429	85
430	84
431	83
432	83
433	84
434	85
435	87
436	90
437	95
438	100
439	106
440	112
441	118
442	123
443	129
444	132
445	134
446	134
447	131
448	126
449	120
450	113
451	105
452	97
453	90
454	83
455	77
456	72
457	68
458	64
459	62
460	61
461	61
462	61
463	61
464	61
465	60
466	58
467	56
468	53
469	48
470	43
471	37
472	31
473	25
474	20
475	14
476	10
477	7
478	5
479	4
480	4
481	4
482	5
483	5
484	5
485	5
486	5
487	5
488	5
489	5
490	5
491	5
492	5
493	5
494	6
495	6
496	6
497	6
498	6
499	6
500	6
501	6
502	6
503	6
504	6
505	6
506	6
507	6
508	6
509	5
510	5
511	5
512	4
513	4
514	3
515	3
516	3
517	3
518	3
519	3
520	3
521	3
522	3
523	3
524	3
525	3
526	2
527	2
528	2
529	2
530	2
531	2
532	2
533	2
534	2
535	2
536	2
537	2
538	1
539	2
540	2
541	3
542	3
543	4
544	5
545	5
546	5
547	5
548	5
549	7
550	9
551	12
552	16
553	21
554	24
555	28
556	31
557	34
558	35
559	36
560	37
561	38
562	38
563	39
564	39
565	40
566	40
567	40
568	40
569	40
570	41
571	42
572	46
573	58
574	80
575	109
576	143
577	172
578	190
579	195
580	195
581	199
582	216
583	247
584	286
585	324
586	354
587	373
588	383
589	386
590	387
591	387
592	387
593	386
594	386
595	385
596	385
597	385
598	384
599	384
600	384
601	384
602	384
603	383
604	378
605	365
606	343
607	313
608	280
609	250
610	233
611	229
612	231
613	228
614	213
615	183
616	145
617	107
618	78
619	61
620	53
621	51
622	53
623	54
624	56
625	57
626	58
627	59
628	59
629	59
630	59
631	59
632	60
633	61
634	64
635	67
636	72
637	78
638	86
639	94
640	103
641	111
642	117
643	121
644	124
645	124
646	122
647	118
648	113
649	108
650	103
651	98
652	93
653	89
654	85
655	82
656	80
657	78
658	77
659	77
660	76
661	76
662	76
663	76
664	75
665	74
666	72
667	68
668	63
669	57
670	49
671	40
672	31
673	23
674	17
675	11
676	7
677	5
678	4
679	4
680	5
681	5
682	6
683	7
684	7
685	7
686	8
687	8
688	8
689	8
690	8
691	8
692	8
693	8
694	8
695	8
696	8
697	8
698	8
699	8
700	8
701	8
702	8
703	8
704	8
705	8
706	8
707	8
708	7
709	7
710	6
711	5
712	5
713	4
714	3
715	2
716	2
717	2
718	2
719	2
720	2
721	2
722	1
723	1
724	1
725	1
726	1
727	1
728	1
729	1
730	0
731	0
732	0
733	0
734	0
735	1
736	3
737	5
738	9
739	14
740	21
741	29
742	37
743	44
744	49
745	52
746	54
747	54
748	54
749	55
750	55
751	57
752	58
753	60
754	61
755	62
756	63
757	64
758	64
759	64
760	64
761	64
762	64
763	64
764	64
765	64
766	64
767	64
768	63
769	61
770	59
771	57
772	58
773	64
774	77
775	95
776	114
777	129
778	136
779	138
780	138
781	147
782	168
783	198
784	235
785	267
786	292
787	307
788	316
789	319
790	320
791	320
792	320
793	320
794	320
795	320
796	320
797	320
798	320
799	320
800	319
801	319
802	317
803	313
804	305
805	291
806	270
807	245
808	221
809	203
810	194
811	193
812	193
813	184
814	164
815	133
816	97
817	64
818	40
819	24
820	16
821	13
822	12
823	12
824	12
825	12
826	12
827	12
828	12
829	12
830	13
831	14
832	15
833	17
834	20
835	24
836	29
837	34
838	40
839	46
840	52
841	57
842	63
843	67
844	70
845	72
846	74
847	75
848	75
849	74
850	73
851	72
852	71
853	70
854	70
855	70
856	70
857	70
858	70
859	70
860	70
861	69
862	69
863	68
864	67
865	65
866	62
867	58
868	54
869	48
870	42
871	36
872	30
873	25
874	20
875	15
876	11
877	8
878	6
879	4
880	2
881	2
882	1
883	1
884	1
885	1
886	1
887	1
888	1
889	1
890	1
891	1
892	1
893	1
894	1
895	1
896	1
897	2
898	2
899	2
900	2
901	2
902	2
903	2
904	2
905	2
906	2
907	2
908	2
909	2
910	2
911	2
912	2
913	2
914	2
915	2
916	2
917	2
918	2
919	2
920	2
921	2
922	2
923	2
924	1
925	1
926	1
927	1
928	1
929	1
930	1
931	1
932	1
933	1
934	1
935	1
936	1
937	1
938	2
939	3
940	6
941	9
942	13
943	17
944	19
945	21
946	21
947	21
948	21
949	22
950	23
951	25
952	27
953	29
954	30
955	31
956	31
957	31
958	31
959	31
960	31
961	31
962	31
963	31
964	31
965	31
966	31
967	31
968	31
969	32
970	33
971	38
972	47
973	68
974	103
975	146
976	194
977	233
978	253
979	258
980	258
981	269
982	299
983	350
984	411
985	467
986	511
987	540
988	556
989	563
990	566
991	566
992	566
993	566
994	566
995	566
996	566
997	566
998	566
999	566
1000	566
1001	565
1002	563
1003	557
1004	545
1005	521
1006	482
1007	435
1008	385
1009	345
1010	325
1011	323
1012	327
1013	323
1014	300
1015	259
1016	208
1017	163
1018	130
1019	112
1020	107
1021	110
1022	117
1023	124
1024	130
1025	135
1026	138
1027	139
1028	140
1029	140
1030	140
1031	142
1032	145
1033	152
1034	161
1035	173
1036	188
1037	206
1038	225
1039	245
1040	264
1041	280
1042	293
1043	301
1044	303
1045	300
1046	293
1047	283
1048	270
1049	258
1050	246
1051	233
1052	222
1053	213
1054	204
1055	197
1056	192
1057	188
1058	186
1059	185
1060	185
1061	186
1062	186
1063	185
1064	182
1065	176
1066	168
1067	155
1068	140
1069	122
1070	103
1071	83
1072	64
1073	48
1074	34
1075	24
1076	17
1077	13
1078	11
1079	10
1080	10
1081	11
1082	12
1083	12
1084	13
1085	13
1086	13
1087	12
1088	12
1089	11
1090	11
1091	10
1092	9
1093	9
1094	8
1095	8
1096	7
1097	7
1098	7
1099	7
1100	7
1101	7
1102	7
1103	7
1104	7
1105	7
1106	7
1107	7
1108	7
1109	7
1110	7
1111	7
1112	7
1113	7
1114	6
1115	5
1116	5
1117	4
1118	4
1119	4
1120	3
1121	3
1122	3
1123	3
1124	3
1125	3
1126	3
1127	3
1128	3
1129	2
1130	2
1131	2
1132	2
1133	1
1134	1
1135	1
1136	2
1137	2
1138	3
1139	4
1140	5
1141	6
1142	7
1143	7
1144	7
1145	7
1146	7
1147	7
1148	8
1149	9
1150	10
1151	12
1152	15
1153	17
1154	19
1155	21
1156	22
1157	23
1158	23
1159	23
1160	24
1161	24
1162	24
1163	24
1164	24
1165	25
1166	25
1167	25
1168	24
1169	24
1170	24
1171	25
1172	30
1173	42
1174	59
1175	81
1176	104
1177	120
1178	127
1179	127
1180	128
1181	137
1182	159
1183	191
1184	226
1185	258
1186	282
1187	299
1188	308
1189	311
1190	313
1191	313
1192	313
1193	313
1194	313
1195	314
1196	314
1197	314
1198	314
1199	314
1200	314
1201	314
1202	313
1203	311
1204	305
1205	292
1206	274
1207	251
1208	229
1209	212
1210	205
1211	205
1212	204
1213	194
1214	172
1215	140
1216	103
1217	70
1218	46
1219	30
1220	21
1221	18
1222	18
1223	18
1224	19
1225	19
1226	19
1227	19
1228	19
1229	19
1230	19
1231	20
1232	21
1233	23
1234	26
1235	31
1236	36
1237	42
1238	48
1239	55
1240	62
1241	68
1242	73
1243	77
1244	80
1245	81
1246	82
1247	82
1248	80
1249	79
1250	78
1251	76
1252	74
1253	72
1254	70
1255	69
1256	69
1257	68
1258	68
1259	69
1260	69
1261	69
1262	68
1263	68
1264	66
1265	64
1266	61
1267	56
1268	51
1269	45
1270	40
1271	33
1272	26
1273	20
1274	15
1275	11
1276	8
1277	6
1278	4
1279	4
1280	3
1281	3
1282	3
1283	3
1284	3
1285	3
1286	3
1287	4
1288	4
1289	4
1290	3
1291	3
1292	3
1293	3
1294	3
1295	3
1296	4
1297	4
1298	5
1299	5
1300	6
1301	6
1302	7
1303	7
1304	7
1305	7
1306	7
1307	7
1308	7
1309	7
1310	7
1311	7
1312	8
1313	8
1314	8
1315	8
1316	8
1317	8
1318	8
1319	8
1320	7
1321	7
1322	7
1323	7
1324	7
1325	8
1326	8
1327	8
1328	8
1329	8
1330	8
1331	8
1332	7
1333	6
1334	6
1335	5
1336	5
1337	7
1338	10
1339	14
1340	19
1341	25
1342	30
1343	34
1344	37
1345	39
1346	39
1347	39
1348	39
1349	41
1350	43
1351	47
1352	51
1353	56
1354	60
1355	63
1356	65
1357	66
1358	66
1359	66
1360	65
1361	65
1362	64
1363	64
1364	64
1365	64
1366	64
1367	64
1368	63
1369	62
1370	64
1371	72
1372	95
1373	139
1374	206
1375	286
1376	364
1377	423
1378	451
1379	455
1380	457
1381	481
1382	539
1383	627
1384	724
1385	810
1386	872
1387	907
1388	925
1389	931
1390	932
1391	932
1392	932
1393	932
1394	932
1395	933
1396	933
1397	934
1398	934
1399	934
1400	934
1401	933
1402	928
1403	916
1404	888
1405	838
1406	766
1407	681
1408	600
1409	540
1410	513
1411	510
1412	510
1413	486
1414	430
1415	345
1416	252
1417	170
1418	113
1419	84
1420	73
1421	73
1422	77
1423	80
1424	83
1425	84
1426	84
1427	84
1428	83
1429	83
1430	83
1431	83
1432	83
1433	85
1434	87
1435	89
1436	93
1437	98
1438	104
1439	111
1440	119
1441	126
1442	132
1443	136
1444	139
1445	138
1446	135
1447	130
1448	122
1449	113
1450	104
1451	95
1452	86
1453	79
1454	74
1455	70
1456	68
1457	66
1458	66
1459	65
1460	65
1461	65
1462	65
1463	65
1464	65
1465	63
1466	61
1467	59
1468	55
1469	50
1470	44
1471	37
1472	29
1473	22
1474	15
1475	9
1476	5
1477	2
1478	1
1479	0
1480	0
1481	0
1482	0
1483	1
1484	1
1485	1
1486	1
1487	1
1488	1
1489	1
1490	1
1491	1
1492	1
1493	1
1494	2
1495	2
1496	2
1497	2
1498	2
1499	2
1500	2
1501	3
1502	3
1503	3
1504	3
1505	3
1506	3
1507	3
1508	3
1509	3
1510	3
1511	3
1512	3
1513	3
1514	3
1515	3
1516	3
1517	3
1518	3
1519	3
1520	3
1521	3
1522	3
1523	3
1524	3
1525	2
1526	2
1527	2
1528	2
1529	2
1530	2
1531	2
1532	2
1533	2
1534	2
1535	2
1536	2
1537	2
1538	3
1539	3
1540	3
1541	3
1542	3
1543	3
1544	3
1545	3
1546	3
1547	3
1548	3
1549	4
1550	6
1551	9
1552	12
1553	15
1554	18
1555	20
1556	22
1557	23
1558	24
1559	24
1560	24
1561	24
1562	24
1563	24
1564	24
1565	25
1566	25
1567	25
1568	25
1569	24
1570	24
1571	26
1572	33
1573	47
1574	72
1575	104
1576	138
1577	162
1578	173
1579	175
1580	176
1581	188
1582	218
1583	261
1584	308
1585	350
1586	379
1587	396
1588	404
1589	406
1590	407
1591	407
1592	407
1593	407
1594	407
1595	407
1596	407
1597	407
1598	407
1599	407
1600	406
1601	406
1602	406
1603	404
1604	397
1605	382
1606	358
1607	326
1608	292
1609	268
1610	258
1611	257
1612	258
1613	247
1614	218
1615	178
1616	134
1617	96
1618	71
1619	58
1620	55
1621	58
1622	62
1623	65
1624	68
1625	69
1626	70
1627	70
1628	70
1629	70
1630	70
1631	71
1632	71
1633	73
1634	75
1635	79
1636	84
1637	90
1638	98
1639	107
1640	117
1641	125
1642	133
1643	138
1644	139
1645	138
1646	135
1647	131
1648	125
1649	118
1650	111
1651	105
1652	98
1653	92
1654	87
1655	83
1656	81
1657	79
1658	78
1659	78
1660	78
1661	78
1662	78
1663	77
1664	77
1665	75
1666	73
1667	69
1668	64
1669	58
1670	50
1671	41
1672	31
1673	22
1674	14
1675	8
1676	4
1677	2
1678	2
1679	2
1680	2
1681	2
1682	1
1683	1
1684	1
1685	0
1686	0
1687	0
1688	0
1689	0
1690	0
1691	0
1692	1
1693	1
1694	1
1695	1
1696	1
1697	1
1698	1
1699	1
1700	1
1701	1
1702	1
1703	1
1704	1
1705	1
1706	1
1707	1
1708	1
1709	1
1710	1
1711	1
1712	1
1713	1
1714	1
1715	1
1716	1
1717	1
1718	1
1719	2
1720	2
1721	3
1722	3
1723	4
1724	4
1725	4
1726	4
1727	4
1728	4
1729	4
1730	4
1731	4
1732	3
1733	4
1734	4
1735	4
1736	5
1737	6
1738	8
1739	11
1740	14
1741	17
1742	20
1743	23
1744	26
1745	27
1746	28
1747	28
1748	28
1749	28
1750	28
1751	29
1752	30
1753	31
1754	32
1755	33
1756	33
1757	33
1758	33
1759	33
1760	33
1761	34
1762	34
1763	35
1764	35
1765	35
1766	35
1767	34
1768	33
1769	32
1770	32
1771	34
1772	45
1773	66
1774	99
1775	137
1776	173
1777	195
1778	204
1779	204
1780	208
1781	226
1782	259
1783	303
1784	346
1785	381
1786	402
1787	412
1788	416
1789	417
1790	418
1791	418
1792	418
1793	417
1794	417
1795	416
1796	416
1797	416
1798	416
1799	416
1800	416
1801	416
1802	414
1803	409
1804	395
1805	371
1806	335
1807	294
1808	256
1809	232
1810	223
1811	223
1812	220
1813	202
1814	169
1815	125
1816	81
1817	47
1818	25
1819	15
1820	12
1821	11
1822	11
1823	12
1824	12
1825	12
1826	12
1827	12
1828	12
1829	13
1830	14
1831	15
1832	18
1833	21
1834	25
1835	30
1836	37
1837	45
1838	53
1839	62
1840	69
1841	77
1842	84
1843	89
1844	93
1845	95
1846	97
1847	97
1848	97
1849	96
1850	94
1851	94
1852	93
1853	92
1854	91
1855	91
1856	91
1857	91
1858	91
1859	91
1860	90
1861	90
1862	89
1863	88
1864	85
1865	82
1866	77
1867	72
1868	66
1869	59
1870	51
1871	42
1872	34
1873	27
1874	20
1875	15
1876	10
1877	7
1878	5
1879	4
1880	3
1881	2
1882	2
1883	2
1884	2
1885	2
1886	2
1887	2
1888	2
1889	2
1890	2
1891	2
1892	2
1893	3
1894	3
1895	3
1896	3
1897	3
1898	3
1899	3
1900	3
1901	3
1902	3
1903	3
1904	3
1905	3
1906	3
1907	3
1908	3
1909	3
1910	4
1911	4
1912	4
1913	4
1914	4
1915	4
1916	4
1917	4
1918	5
1919	5
1920	5
1921	5
1922	6
1923	6
1924	6
1925	6
1926	6
1927	6
1928	6
1929	6
1930	5
1931	5
1932	5
1933	5
1934	5
1935	5
1936	5
1937	5
1938	6
1939	7
1940	9
1941	11
1942	14
1943	16
1944	17
1945	18
1946	18
1947	18
1948	18
1949	19
1950	20
1951	23
1952	25
1953	27
1954	28
1955	29
1956	29
1957	28
1958	28
1959	28
1960	29
1961	29
1962	29
1963	29
1964	29
1965	30
1966	30
1967	30
1968	30
1969	31
1970	36
1971	46
1972	66
1973	100
1974	145
1975	195
1976	241
1977	271
1978	282
1979	282
1980	288
1981	311
1982	354
1983	409
1984	465
1985	507
1986	534
1987	548
1988	554
1989	556
1990	556
1991	556
1992	556
1993	556
1994	556
1995	555
1996	555
1997	555
1998	555
1999	555
2000	555
2001	553
2002	547
2003	536
2004	513
2005	477
2006	430
2007	377
2008	330
2009	300
2010	289
2011	289
2012	284
2013	263
2014	223
2015	173
2016	125
2017	91
2018	74
2019	70
2020	73
2021	79
2022	85
2023	89
2024	92
2025	93
2026	94
2027	95
2028	95
2029	95
2030	95
2031	95
2032	96
2033	98
2034	102
2035	108
2036	117
2037	129
2038	144
2039	160
2040	177
2041	192
2042	204
2043	214
2044	219
2045	221
2046	218
2047	211
2048	203
2049	192
2050	180
2051	169
2052	160
2053	152
2054	146
2055	141
2056	139
2057	138
2058	137
2059	137
2060	137
2061	138
2062	139
2063	140
2064	140
2065	138
2066	135
2067	129
2068	120
2069	107
2070	92
2071	76
2072	59
2073	45
2074	32
2075	23
2076	16
2077	12
2078	10
2079	9
2080	8
2081	8
2082	8
2083	8
2084	8
2085	8
2086	8
2087	8
2088	9
2089	9
2090	9
2091	9
2092	9
2093	8
2094	8
2095	7
2096	7
2097	6
2098	6
2099	6
2100	6
2101	7
2102	7
2103	7
2104	7
2105	7
2106	7
2107	7
2108	6
2109	6
2110	6
2111	6
2112	6
2113	6
2114	6
2115	6
2116	6
2117	6
2118	6
2119	5
2120	5
2121	4
2122	4
2123	3
2124	3
2125	3
2126	2
2127	2
2128	2
2129	2
2130	2
2131	2
2132	2
2133	1
2134	1
2135	1
2136	1
2137	1
2138	2
2139	3
2140	4
2141	5
2142	6
2143	7
2144	7
2145	8
2146	8
2147	8
2148	9
2149	10
2150	13
2151	16
2152	19
2153	23
2154	26
2155	29
2156	31
2157	32
2158	32
2159	33
2160	33
2161	33
2162	33
2163	34
2164	34
2165	34
2166	34
2167	34
2168	34
2169	33
2170	33
2171	36
2172	43
2173	55
2174	74
2175	96
2176	113
2177	122
2178	124
2179	124
2180	130
2181	145
2182	170
2183	201
2184	229
2185	250
2186	264
2187	270
2188	272
2189	272
2190	272
2191	272
2192	272
2193	272
2194	272
2195	272
2196	271
2197	271
2198	271
2199	271
2200	271
2201	271
2202	270
2203	266
2204	258
2205	245
2206	225
2207	202
2208	184
2209	175
2210	174
2211	174
2212	169
2213	154
2214	129
2215	98
2216	69
2217	48
2218	34
2219	28
2220	26
2221	26
2222	26
2223	26
2224	26
2225	26
2226	26
2227	26
2228	26
2229	27
2230	27
2231	29
2232	31
2233	34
2234	38
2235	45
2236	52
2237	60
2238	69
2239	78
2240	87
2241	95
2242	101
2243	107
2244	110
2245	111
2246	110
2247	108
2248	106
2249	103
2250	100
2251	98
2252	96
2253	95
2254	94
2255	93
2256	93
2257	93
2258	93
2259	93
2260	93
2261	93
2262	92
2263	90
2264	88
2265	85
2266	81
2267	75
2268	68
2269	60
2270	51
2271	42
2272	33
2273	25
2274	18
2275	12
2276	7
2277	5
2278	3
2279	2
2280	1
2281	1
2282	1
2283	1
2284	1
2285	1
2286	1
2287	1
2288	2
2289	2
2290	2
2291	3
2292	3
2293	3
2294	3
2295	3
2296	3
2297	3
2298	3
2299	3
2300	3
2301	3
2302	3
2303	3
2304	3
2305	3
2306	4
2307	4
2308	4
2309	4
2310	4
2311	4
2312	4
2313	4
2314	4
2315	4
2316	4
2317	4
2318	4
2319	3
2320	3
2321	3
2322	3
2323	3
2324	3
2325	3
2326	3
2327	3
2328	3
2329	3
2330	3
2331	3
2332	3
2333	4
2334	4
2335	5
2336	5
2337	7
2338	8
2339	11
2340	14
2341	17
2342	19
2343	21
2344	22
2345	23
2346	23
2347	23
2348	24
2349	27
2350	30
2351	35
2352	40
2353	44
2354	47
2355	50
2356	51
2357	52
2358	52
2359	51
2360	51
2361	52
2362	52
2363	52
2364	52
2365	52
2366	52
2367	51
2368	51
2369	51
2370	56
2371	70
2372	99
2373	148
2374	215
2375	288
2376	347
2377	381
2378	391
2379	391
2380	402
2381	438
2382	500
2383	577
2384	650
2385	706
2386	740
2387	757
2388	764
2389	765
2390	766
2391	766
2392	766
2393	766
2394	766
2395	766
2396	766
2397	766
2398	766
2399	766
2400	766
2401	764
2402	757
2403	740
2404	708
2405	656
2406	587
2407	512
2408	451
2409	417
2410	408
2411	410
2412	400
2413	366
2414	307
2415	235
2416	167
2417	116
2418	88
2419	77
2420	76
2421	78
2422	80
2423	82
2424	83
2425	83
2426	83
2427	82
2428	82
2429	83
2430	84
2431	86
2432	89
2433	93
2434	99
2435	107
2436	117
2437	127
2438	137
2439	146
2440	154
2441	159
2442	163
2443	165
2444	164
2445	161
2446	155
2447	146
2448	136
2449	126
2450	116
2451	108
2452	101
2453	97
2454	95
2455	93
2456	93
2457	93
2458	93
2459	93
2460	93
2461	93
2462	91
2463	89
2464	86
2465	82
2466	75
2467	68
2468	58
2469	48
2470	38
2471	30
2472	22
2473	16
2474	13
2475	10
2476	9
2477	8
2478	8
2479	7
2480	7
2481	7
2482	7
2483	7
2484	7
2485	6
2486	6
2487	5
2488	5
2489	4
2490	4
2491	4
2492	4
2493	4
2494	4
2495	4
2496	4
2497	4
2498	4
2499	4
2500	4
2501	4
2502	4
2503	4
2504	3
2505	3
2506	2
2507	1
2508	1
2509	0
2510	0
2511	0
2512	1
2513	1
2514	1
2515	1
2516	1
2517	1
2518	1
2519	1
2520	1
2521	2
2522	2
2523	2
2524	2
2525	2
2526	2
2527	3
2528	3
2529	3
2530	3
2531	3
2532	3
2533	3
2534	3
2535	3
2536	3
2537	3
2538	3
2539	3
2540	4
2541	4
2542	5
2543	5
2544	4
2545	4
2546	4
2547	4
2548	5
2549	6
2550	7
2551	9
2552	11
2553	13
2554	15
2555	16
2556	17
2557	17
2558	18
2559	18
2560	18
2561	18
2562	18
2563	18
2564	18
2565	18
2566	18
2567	17
2568	18
2569	18
2570	19
2571	23
2572	31
2573	44
2574	62
2575	80
2576	93
2577	99
2578	100
2579	101
2580	110
2581	130
2582	160
2583	194
2584	226
2585	251
2586	267
2587	276
2588	280
2589	281
2590	282
2591	282
2592	283
2593	283
2594	283
2595	283
2596	283
2597	283
2598	283
2599	283
2600	283
2601	282
2602	281
2603	277
2604	268
2605	254
2606	236
2607	218
2608	205
2609	199
2610	198
2611	197
2612	189
2613	169
2614	139
2615	105
2616	73
2617	50
2618	35
2619	28
2620	25
2621	25
2622	26
2623	27
2624	28
2625	29
2626	30
2627	30
2628	31
2629	31
2630	31
2631	31
2632	32
2633	34
2634	38
2635	43
2636	49
2637	56
2638	64
2639	72
2640	79
2641	85
2642	89
2643	92
2644	94
2645	94
2646	94
2647	93
2648	91
2649	88
2650	85
2651	82
2652	79
2653	77
2654	75
2655	73
2656	72
2657	71
2658	70
2659	70
2660	70
2661	70
2662	70
2663	70
2664	69
2665	67
2666	63
2667	59
2668	53
2669	46
2670	38
2671	30
2672	24
2673	18
2674	14
2675	11
2676	8
2677	7
2678	6
2679	5
2680	5
2681	5
2682	4
2683	4
2684	4
2685	4
2686	4
2687	4
2688	4
2689	4
2690	4
2691	4
2692	4
2693	4
2694	4
2695	4
2696	4
2697	4
2698	4
2699	4
2700	4
2701	4
2702	4
2703	4
2704	3
2705	3
2706	2
2707	2
2708	2
2709	2
2710	2
2711	2
2712	2
2713	2
2714	2
2715	2
2716	2
2717	2
2718	2
2719	2
2720	2
2721	2
2722	3
2723	3
2724	3
2725	3
2726	3
2727	3
2728	4
2729	4
2730	4
2731	4
2732	4
2733	4
2734	5
2735	6
2736	8
2737	11
2738	14
2739	18
2740	23
2741	27
2742	30
2743	32
2744	33
2745	33
2746	33
2747	33
2748	34
2749	36
2750	39
2751	43
2752	47
2753	51
2754	56
2755	59
2756	62
2757	63
2758	65
2759	65
2760	65
2761	65
2762	65
2763	65
2764	65
2765	64
2766	63
2767	63
2768	62
2769	62
2770	67
2771	81
2772	110
2773	156
2774	213
2775	271
2776	315
2777	336
2778	339
2779	340
2780	359
2781	402
2782	465
2783	536
2784	598
2785	641
2786	665
2787	675
2788	677
2789	677
2790	676
2791	675
2792	674
2793	674
2794	674
2795	675
2796	675
2797	675
2798	675
2799	675
2800	674
2801	671
2802	664
2803	646
2804	612
2805	562
2806	502
2807	442
2808	397
2809	377
2810	376
2811	377
2812	362
2813	321
2814	260
2815	191
2816	131
2817	90
2818	67
2819	58
2820	56
2821	58
2822	60
2823	62
2824	63
2825	63
2826	64
2827	63
2828	63
2829	63
2830	63
2831	64
2832	66
2833	68
2834	71
2835	75
2836	79
2837	84
2838	88
2839	92
2840	95
2841	97
2842	97
2843	96
2844	94
2845	90
2846	85
2847	79
2848	73
2849	67
2850	62
2851	57
2852	53
2853	50
2854	48
2855	46
2856	45
2857	44
2858	44
2859	44
2860	44
2861	44
2862	44
2863	42
2864	41
2865	38
2866	35
2867	31
2868	27
2869	22
2870	18
2871	13
2872	10
2873	7
2874	4
2875	3
2876	2
2877	1
2878	1
2879	1
2880	1
2881	1
2882	1
2883	1
2884	1
2885	1
2886	1
2887	1
2888	1
2889	1
2890	1
2891	2
2892	2
2893	2
2894	2
2895	2
2896	2
2897	2
2898	2
2899	2
2900	2
2901	2
2902	2
2903	2
2904	2
2905	2
2906	2
2907	2
2908	2
2909	2
2910	2
2911	2
2912	2
2913	2
2914	2
2915	2
2916	2
2917	2
2918	2
2919	2
2920	2
2921	2
2922	2
2923	2
2924	2
2925	2
2926	2
2927	2
2928	2
2929	2
2930	2
2931	2
2932	2
2933	2
2934	2
2935	2
2936	2
2937	2
2938	3
2939	3
2940	4
2941	4
2942	4
2943	4
2944	4
2945	4
2946	5
2947	5
2948	6
2949	8
2950	10
2951	12
2952	14
2953	15
2954	17
2955	18
2956	19
2957	19
2958	19
2959	20
2960	20
2961	20
2962	20
2963	20
2964	20
2965	20
2966	20
2967	20
2968	20
2969	21
2970	24
2971	30
2972	42
2973	60
2974	82
2975	105
2976	121
2977	129
2978	130
2979	130
2980	138
2981	158
2982	188
2983	222
2984	252
2985	275
2986	288
2987	295
2988	297
2989	297
2990	297
2991	297
2992	296
2993	296
2994	296
2995	296
2996	296
2997	296
2998	296
2999	296
3000	296
3001	295
3002	292
3003	285
3004	272
3005	254
3006	231
3007	209
3008	193
3009	186
3010	187
3011	188
3012	182
3013	165
3014	137
3015	106
3016	78
3017	58
3018	47
3019	42
3020	41
3021	42
3022	44
3023	45
3024	45
3025	46
3026	46
3027	46
3028	46
3029	46
3030	47
3031	47
3032	49
3033	51
3034	55
3035	60
3036	65
3037	71
3038	76
3039	80
3040	83
3041	85
3042	86
3043	86
3044	84
3045	82
3046	79
3047	75
3048	71
3049	67
3050	63
3051	60
3052	58
3053	56
3054	54
3055	53
3056	53
3057	52
3058	52
3059	52
3060	52
3061	52
3062	52
3063	51
3064	50
3065	47
3066	44
3067	38
3068	33
3069	28
3070	23
3071	19
3072	16
3073	13
3074	10
3075	8
3076	7
3077	5
3078	4
3079	4
3080	3
3081	3
3082	2
3083	2
3084	2
3085	2
3086	2
3087	2
3088	2
3089	2
3090	2
3091	2
3092	2
3093	2
3094	2
3095	2
3096	2
3097	2
3098	2
3099	3
3100	4
3101	4
3102	4
3103	5
3104	5
3105	5
3106	4
3107	4
3108	4
3109	4
3110	4
3111	4
3112	4
3113	5
3114	5
3115	5
3116	6
3117	6
3118	6
3119	6
3120	6
3121	7
3122	7
3123	7
3124	7
3125	7
3126	7
3127	7
3128	7
3129	7
3130	7
3131	6
3132	5
3133	5
3134	4
3135	4
3136	5
3137	7
3138	10
3139	13
3140	18
3141	22
3142	25
3143	27
3144	27
3145	27
3146	27
3147	28
3148	29
3149	32
3150	36
3151	41
3152	45
3153	49
3154	51
3155	53
3156	53
3157	53
3158	53
3159	53
3160	53
3161	53
3162	53
3163	53
3164	53
3165	53
3166	53
3167	52
3168	52
3169	52
3170	56
3171	68
3172	94
3173	138
3174	190
3175	243
3176	282
3177	302
3178	305
3179	306
3180	320
3181	357
3182	410
3183	472
3184	525
3185	562
3186	582
3187	591
3188	593
3189	593
3190	593
3191	594
3192	594
3193	594
3194	594
3195	594
3196	594
3197	594
3198	594
3199	594
3200	594
3201	592
3202	585
3203	569
3204	539
3205	491
3206	436
3207	382
3208	342
3209	323
3210	321
3211	321
3212	306
3213	268
3214	213
3215	150
3216	96
3217	58
3218	38
3219	31
3220	30
3221	32
3222	33
3223	35
3224	36
3225	36
3226	37
3227	37
3228	37
3229	37
3230	37
3231	38
3232	40
3233	42
3234	46
3235	51
3236	57
3237	63
3238	69
3239	75
3240	80
3241	84
3242	86
3243	87
3244	86
3245	85
3246	83
3247	81
3248	78
3249	75
3250	73
3251	70
3252	68
3253	67
3254	65
3255	64
3256	63
3257	63
3258	62
3259	62
3260	63
3261	63
3262	62
3263	61
3264	60
3265	57
3266	53
3267	48
3268	42
3269	36
3270	30
3271	24
3272	19
3273	14
3274	11
3275	9
3276	7
3277	6
3278	6
3279	5
3280	5
3281	4
3282	4
3283	4
3284	3
3285	3
3286	3
3287	3
3288	2
3289	2
3290	2
3291	3
3292	3
3293	3
3294	3
3295	3
3296	3
3297	3
3298	3
3299	3
3300	3
3301	3
3302	3
3303	3
3304	3
3305	3
3306	3
3307	3
3308	3
3309	3
3310	3
3311	3
3312	3
3313	3
3314	3
3315	3
3316	3
3317	3
3318	3
3319	3
3320	3
3321	3
3322	2
3323	2
3324	2
3325	2
3326	1
3327	1
3328	1
3329	1
3330	1
3331	1
3332	1
3333	1
3334	1
3335	1
3336	1
3337	2
3338	3
3339	3
3340	4
3341	5
3342	6
3343	6
3344	6
3345	6
3346	6
3347	7
3348	8
3349	10
3350	12
3351	15
3352	18
3353	20
3354	21
3355	22
3356	22
3357	22
3358	24
3359	31
3360	48
3361	84
3362	147
3363	248
3364	393
3365	573
3366	783
3367	998
3368	1203
3369	1383
3370	1536
3371	1663
3372	1767
3373	1850
3374	1915
3375	1958
3376	1977
3377	1980
3378	1983
3379	2010
3380	2081
3381	2195
3382	2333
3383	2466
3384	2576
3385	2652
3386	2698
3387	2722
3388	2735
3389	2740
3390	2742
3391	2738
3392	2724
3393	2690
3394	2629
3395	2530
3396	2388
3397	2210
3398	2003
3399	1790
3400	1588
3401	1410
3402	1259
3403	1134
3404	1031
3405	949
3406	884
3407	843
3408	824
3409	822
3410	819
3411	791
3412	719
3413	604
3414	464
3415	330
3416	219
3417	143
3418	98
3419	75
3420	63
3421	58
3422	55
3423	53
3424	50
3425	48
3426	45
3427	44
3428	43
3429	43
3430	44
3431	47
3432	53
3433	62
3434	74
3435	91
3436	111
3437	137
3438	168
3439	200
3440	234
3441	265
3442	293
3443	316
3444	332
3445	344
3446	351
3447	355
3448	356
3449	357
3450	356
3451	356
3452	356
3453	356
3454	356
3455	356
3456	357
3457	358
3458	358
3459	358
3460	357
3461	355
3462	351
3463	345
3464	337
3465	326
3466	311
3467	292
3468	269
3469	241
3470	209
3471	175
3472	141
3473	109
3474	81
3475	58
3476	41
3477	29
3478	21
3479	16
3480	12
3481	9
3482	8
3483	7
3484	6
3485	5
3486	5
3487	4
3488	3
3489	3
3490	2
3491	1
3492	1
3493	0
3494	0
3495	0
3496	0
3497	0
3498	0
3499	0
3500	0
3501	0
3502	0
3503	0
3504	0
3505	0
3506	0
3507	0
3508	0
3509	0
3510	0
3511	0
3512	0
3513	0
3514	0
3515	0
3516	0
3517	0
3518	0
3519	0
3520	0
3521	0
3522	0
3523	0
3524	0
3525	0
3526	0
3527	0
3528	0
3529	0
3530	0
3531	0
3532	0
3533	0
3534	0
3535	0
3536	1
3537	2
3538	4
3539	5
3540	7
3541	9
3542	10
3543	11
3544	11
3545	11
3546	11
3547	12
3548	13
3549	15
3550	18
3551	21
3552	24
3553	26
3554	28
3555	29
3556	30
3557	30
3558	30
3559	30
3560	31
3561	31
3562	31
3563	31
3564	31
3565	31
3566	30
3567	30
3568	31
3569	33
3570	43
3571	64
3572	101
3573	152
3574	211
3575	263
3576	297
3577	308
3578	308
3579	315
3580	344
3581	397
3582	466
3583	534
3584	590
3585	625
3586	643
3587	651
3588	654
3589	654
3590	654
3591	654
3592	654
3593	654
3594	654
3595	654
3596	654
3597	654
3598	654
3599	654
3600	652
3601	649
3602	637
3603	615
3604	576
3605	524
3606	464
3607	411
3608	377
3609	367
3610	368
3611	362
3612	335
3613	285
3614	219
3615	154
3616	103
3617	73
3618	60
3619	58
3620	61
3621	65
3622	69
3623	71
3624	73
3625	74
3626	74
3627	74
3628	74
3629	74
3630	75
3631	77
3632	80
3633	85
3634	91
3635	99
3636	109
3637	119
3638	130
3639	141
3640	151
3641	158
3642	163
3643	165
3644	165
3645	163
3646	158
3647	151
3648	144
3649	136
3650	129
3651	122
3652	116
3653	112
3654	108
3655	105
3656	104
3657	103
3658	103
3659	103
3660	103
3661	103
3662	102
3663	100
3664	97
3665	92
3666	86
3667	78
3668	68
3669	58
3670	47
3671	36
3672	26
3673	18
3674	12
3675	8
3676	5
3677	3
3678	2
3679	2
3680	2
3681	2
3682	2
3683	2
3684	2
3685	2
3686	2
3687	2
3688	2
3689	2
3690	2
3691	2
3692	2
3693	2
3694	2
3695	2
3696	2
3697	2
3698	2
3699	2
3700	1
3701	1
3702	1
3703	1
3704	1
3705	1
3706	1
3707	1
3708	0
3709	0
3710	0
3711	0
3712	0
3713	0
3714	0
3715	0
3716	0
3717	0
3718	0
3719	0
3720	0
3721	0
3722	0
3723	0
3724	0
3725	0
3726	0
3727	0
3728	0
3729	0
3730	0
3731	0
3732	0
3733	1
3734	1
3735	2
3736	4
3737	7
3738	11
3739	16
3740	20
3741	24
3742	27
3743	28
3744	29
3745	29
3746	29
3747	30
3748	33
3749	36
3750	41
3751	47
3752	52
3753	56
3754	59
3755	61
3756	63
3757	63
3758	63
3759	63
3760	63
3761	63
3762	63
3763	63
3764	63
3765	63
3766	62
3767	61
3768	62
3769	67
3770	83
3771	119
3772	180
3773	261
3774	350
3775	423
3776	463
3777	473
3778	473
3779	493
3780	554
3781	652
3782	767
3783	878
3784	960
3785	1013
3786	1040
3787	1051
3788	1053
3789	1054
3790	1053
3791	1053
3792	1053
3793	1054
3794	1054
3795	1054
3796	1054
3797	1054
3798	1054
3799	1054
3800	1051
3801	1043
3802	1024
3803	984
3804	918
3805	833
3806	743
3807	668
3808	628
3809	620
3810	622
3811	606
3812	551
3813	460
3814	352
3815	251
3816	178
3817	136
3818	119
3819	118
3820	123
3821	130
3822	134
3823	137
3824	139
3825	139
3826	139
3827	139
3828	140
3829	141
3830	144
3831	149
3832	156
3833	166
3834	178
3835	193
3836	210
3837	229
3838	248
3839	267
3840	283
3841	295
3842	303
3843	305
3844	301
3845	293
3846	281
3847	266
3848	251
3849	236
3850	222
3851	211
3852	202
3853	195
3854	191
3855	188
3856	187
3857	186
3858	186
3859	186
3860	186
3861	184
3862	181
3863	176
3864	169
3865	159
3866	146
3867	131
3868	115
3869	95
3870	76
3871	56
3872	40
3873	26
3874	15
3875	8
3876	4
3877	2
3878	1
3879	1
3880	1
3881	1
3882	1
3883	1
3884	1
3885	0
3886	0
3887	0
3888	0
3889	0
3890	0
3891	0
3892	0
3893	0
3894	0
3895	0
3896	0
3897	0
3898	0
3899	0
3900	0
3901	0
3902	0
3903	0
3904	0
3905	0
3906	0
3907	0
3908	0
3909	0
3910	0
3911	0
3912	0
3913	0
3914	0
3915	0
3916	0
3917	0
3918	0
3919	0
3920	0
3921	0
3922	0
3923	0
3924	0
3925	0
3926	0
3927	0
3928	0
3929	0
3930	0
3931	0
3932	0
3933	0
3934	0
3935	1
3936	3
3937	5
3938	7
3939	10
3940	12
3941	14
3942	16
3943	17
3944	17
3945	17
3946	17
3947	18
3948	20
3949	22
3950	25
3951	28
3952	32
3953	34
3954	36
3955	37
3956	38
3957	38
3958	38
3959	38
3960	39
3961	39
3962	39
3963	39
3964	38
3965	38
3966	38
3967	37
3968	38
3969	43
3970	57
3971	86
3972	134
3973	198
3974	262
3975	314
3976	342
3977	347
3978	348
3979	365
3980	408
3981	478
3982	556
3983	628
3984	680
3985	711
3986	727
3987	733
3988	735
3989	735
3990	735
3991	735
3992	735
3993	735
3994	735
3995	735
3996	735
3997	735
3998	735
3999	734
4000	732
4001	725
4002	709
4003	677
4004	627
4005	561
4006	495
4007	443
4008	415
4009	410
4010	411
4011	396
4012	354
4013	286
4014	211
4015	143
4016	95
4017	69
4018	58
4019	58
4020	61
4021	65
4022	69
4023	72
4024	73
4025	74
4026	74
4027	74
4028	74
4029	75
4030	77
4031	80
4032	85
4033	91
4034	99
4035	109
4036	120
4037	133
4038	145
4039	157
4040	168
4041	178
4042	184
4043	187
4044	187
4045	185
4046	180
4047	173
4048	167
4049	159
4050	152
4051	145
4052	138
4053	134
4054	130
4055	128
4056	126
4057	125
4058	125
4059	125
4060	125
4061	124
4062	122
4063	119
4064	115
4065	109
4066	101
4067	91
4068	79
4069	67
4070	55
4071	42
4072	31
4073	21
4074	13
4075	8
4076	4
4077	2
4078	1
4079	0
4080	0
4081	0
4082	0
4083	0
4084	0
4085	0
4086	0
4087	0
4088	0
4089	0
4090	0
4091	0
4092	0
4093	0
4094	0
4095	0
4096	0
4097	0
4098	0
4099	0
4100	0
4101	0
4102	0
4103	0
4104	0
4105	0
4106	0
4107	0
4108	0
4109	0
4110	0
4111	0
4112	0
4113	0
4114	0
4115	0
4116	0
4117	0
4118	0
4119	0
4120	0
4121	0
4122	0
4123	0
4124	0
4125	0
4126	0
4127	0
4128	0
4129	0
4130	0
4131	0
4132	0
4133	1
4134	2
4135	4
4136	7
4137	11
4138	17
4139	24
4140	31
4141	38
4142	42
4143	45
4144	45
4145	45
4146	46
4147	48
4148	52
4149	59
4150	67
4151	76
4152	84
4153	91
4154	96
4155	100
4156	102
4157	103
4158	103
4159	103
4160	104
4161	104
4162	103
4163	103
4164	103
4165	103
4166	102
4167	100
4168	101
4169	108
4170	126
4171	164
4172	223
4173	299
4174	372
4175	425
4176	448
4177	451
4178	455
4179	481
4180	540
4181	628
4182	729
4183	818
4184	882
4185	920
4186	937
4187	943
4188	944
4189	943
4190	943
4191	942
4192	942
4193	942
4194	942
4195	943
4196	943
4197	943
4198	943
4199	942
4200	939
4201	928
4202	903
4203	858
4204	792
4205	711
4206	634
4207	579
4208	555
4209	552
4210	550
4211	524
4212	464
4213	374
4214	270
4215	179
4216	114
4217	77
4218	61
4219	59
4220	62
4221	66
4222	69
4223	71
4224	72
4225	72
4226	72
4227	72
4228	72
4229	74
4230	77
4231	82
4232	88
4233	96
4234	106
4235	116
4236	126
4237	136
4238	145
4239	152
4240	158
4241	162
4242	164
4243	164
4244	162
4245	158
4246	153
4247	147
4248	141
4249	133
4250	126
4251	119
4252	112
4253	108
4254	105
4255	103
4256	102
4257	101
4258	101
4259	101
4260	101
4261	99
4262	95
4263	90
4264	84
4265	76
4266	66
4267	56
4268	46
4269	36
4270	27
4271	19
4272	12
4273	8
4274	4
4275	2
4276	1
4277	0
4278	0
4279	0
4280	0
4281	0
4282	0
4283	0
4284	0
4285	0
4286	0
4287	0
4288	0
4289	0
4290	0
4291	0
4292	0
4293	0
4294	0
4295	0
4296	0
4297	0
4298	0
4299	0
4300	0
4301	0
4302	0
4303	0
4304	0
4305	0
4306	0
4307	0
4308	0
4309	0
4310	0
4311	0
4312	0
4313	0
4314	0
4315	0
4316	0
4317	0
4318	0
4319	0
4320	0
4321	0
4322	0
4323	0
4324	0
4325	0
4326	0
4327	0
4328	0
4329	0
4330	0
4331	0
4332	0
4333	0
4334	0
4335	1
4336	3
4337	5
4338	7
4339	10
4340	13
4341	16
4342	18
4343	18
4344	18
4345	18
4346	19
4347	20
4348	23
4349	26
4350	30
4351	34
4352	38
4353	41
4354	44
4355	45
4356	46
4357	47
4358	47
4359	47
4360	47
4361	47
4362	47
4363	47
4364	47
4365	47
4366	47
4367	47
4368	48
4369	54
4370	71
4371	102
4372	149
4373	207
4374	263
4375	305
4376	325
4377	327
4378	329
4379	347
4380	392
4381	458
4382	529
4383	591
4384	635
4385	660
4386	671
4387	675
4388	675
4389	675
4390	674
4391	674
4392	674
4393	674
4394	674
4395	674
4396	674
4397	674
4398	674
4399	673
4400	670
4401	662
4402	643
4403	609
4404	559
4405	498
4406	441
4407	398
4408	379
4409	378
4410	377
4411	361
4412	317
4413	253
4414	185
4415	127
4416	89
4417	70
4418	64
4419	67
4420	71
4421	76
4422	79
4423	82
4424	83
4425	83
4426	84
4427	84
4428	84
4429	85
4430	87
4431	91
4432	97
4433	105
4434	115
4435	128
4436	142
4437	157
4438	172
4439	185
4440	197
4441	206
4442	211
4443	213
4444	213
4445	209
4446	203
4447	196
4448	187
4449	178
4450	170
4451	162
4452	156
4453	151
4454	147
4455	145
4456	144
4457	143
4458	143
4459	143
4460	143
4461	142
4462	139
4463	136
4464	130
4465	122
4466	111
4467	99
4468	85
4469	70
4470	55
4471	41
4472	29
4473	19
4474	12
4475	7
4476	4
4477	2
4478	1
4479	0
4480	0
4481	0
4482	0
4483	0
4484	0
4485	0
4486	0
4487	0
4488	0
4489	0
4490	0
4491	0
4492	0
4493	0
4494	0
4495	0
4496	0
4497	0
4498	0
4499	0
4500	0
4501	0
4502	0
4503	0
4504	0
4505	0
4506	0
4507	0
4508	0
4509	0
4510	0
4511	0
4512	0
4513	0
4514	0
4515	0
4516	0
4517	0
4518	0
4519	0
4520	0
4521	0
4522	0
4523	0
4524	0
4525	0
4526	0
4527	0
4528	0
4529	0
4530	0
4531	0
4532	1
4533	1
4534	3
4535	7
4536	11
4537	17
4538	24
4539	31
4540	38
4541	43
4542	47
4543	48
4544	48
4545	48
4546	50
4547	53
4548	59
4549	67
4550	76
4551	85
4552	93
4553	100
4554	105
4555	108
4556	109
4557	110
4558	110
4559	110
4560	110
4561	110
4562	110
4563	110
4564	109
4565	109
4566	107
4567	105
4568	105
4569	110
4570	128
4571	161
4572	209
4573	267
4574	325
4575	366
4576	385
4577	387
4578	388
4579	406
4580	448
4581	509
4582	575
4583	635
4584	679
4585	704
4586	716
4587	720
4588	721
4589	721
4590	720
4591	720
4592	720
4593	720
4594	720
4595	720
4596	720
4597	720
4598	720
4599	719
4600	714
4601	703
4602	679
4603	638
4604	583
4605	520
4606	459
4607	417
4608	397
4609	396
4610	394
4611	375
4612	329
4613	263
4614	192
4615	127
4616	78
4617	50
4618	37
4619	33
4620	33
4621	35
4622	36
4623	37
4624	37
4625	38
4626	38
4627	38
4628	38
4629	38
4630	39
4631	41
4632	44
4633	49
4634	54
4635	60
4636	67
4637	75
4638	83
4639	90
4640	96
4641	101
4642	103
4643	104
4644	104
4645	102
4646	98
4647	94
4648	91
4649	87
4650	83
4651	80
4652	78
4653	76
4654	74
4655	73
4656	73
4657	73
4658	73
4659	73
4660	73
4661	72
4662	71
4663	69
4664	66
4665	61
4666	56
4667	50
4668	43
4669	35
4670	27
4671	20
4672	14
4673	9
4674	5
4675	2
4676	1
4677	0
4678	0
4679	0
4680	0
4681	0
4682	0
4683	0
4684	0
4685	0
4686	0
4687	0
4688	0
4689	0
4690	0
4691	0
4692	0
4693	0
4694	0
4695	0
4696	0
4697	0
4698	0
4699	0
4700	0
4701	0
4702	0
4703	0
4704	0
4705	0
4706	0
4707	0
4708	0
4709	0
4710	0
4711	0
4712	0
4713	0
4714	0
4715	0
4716	0
4717	0
4718	0
4719	0
4720	0
4721	0
4722	0
4723	0
4724	0
4725	0
4726	0
4727	0
4728	0
4729	0
4730	0
4731	0
4732	0
4733	0
4734	1
4735	2
4736	4
4737	6
4738	9
4739	12
4740	16
4741	18
4742	20
4743	20
4744	20
4745	20
4746	21
4747	23
4748	26
4749	31
4750	35
4751	40
4752	44
4753	47
4754	49
4755	50
4756	50
4757	51
4758	51
4759	51
4760	51
4761	51
4762	51
4763	51
4764	51
4765	50
4766	50
4767	50
4768	51
4769	59
4770	77
4771	112
4772	164
4773	228
4774	287
4775	329
4776	346
4777	348
4778	351
4779	375
4780	427
4781	501
4782	581
4783	648
4784	697
4785	724
4786	736
4787	740
4788	740
4789	740
4790	740
4791	740
4792	740
4793	740
4794	740
4795	740
4796	740
4797	740
4798	740
4799	739
4800	736
4801	726
4802	705
4803	666
4804	611
4805	545
4806	485
4807	442
4808	425
4809	424
4810	423
4811	399
4812	349
4813	277
4814	199
4815	135
4816	92
4817	71
4818	66
4819	69
4820	75
4821	80
4822	84
4823	86
4824	88
4825	88
4826	88
4827	88
4828	89
4829	90
4830	93
4831	99
4832	105
4833	116
4834	128
4835	142
4836	158
4837	175
4838	190
4839	203
4840	215
4841	224
4842	229
4843	231
4844	229
4845	225
4846	218
4847	211
4848	202
4849	193
4850	184
4851	176
4852	169
4853	164
4854	160
4855	158
4856	156
4857	156
4858	156
4859	156
4860	155
4861	154
4862	151
4863	146
4864	139
4865	128
4866	116
4867	102
4868	86
4869	70
4870	55
4871	41
4872	29
4873	19
4874	12
4875	7
4876	4
4877	3
4878	2
4879	2
4880	2
4881	2
4882	2
4883	2
4884	2
4885	2
4886	2
4887	2
4888	2
4889	2
4890	2
4891	2
4892	2
4893	2
4894	2
4895	2
4896	2
4897	2
4898	2
4899	2
4900	2
4901	2
4902	1
4903	1
4904	1
4905	1
4906	1
4907	1
4908	1
4909	1
4910	1
4911	1
4912	1
4913	1
4914	0
4915	0
4916	0
4917	0
4918	0
4919	0
4920	0
4921	0
4922	0
4923	0
4924	0
4925	0
4926	0
4927	0
4928	0
4929	0
4930	0
4931	0
4932	0
4933	0
4934	1
4935	1
4936	3
4937	4
4938	6
4939	8
4940	10
4941	11
4942	11
4943	12
4944	11
4945	12
4946	12
4947	14
4948	16
4949	18
4950	21
4951	24
4952	26
4953	27
4954	28
4955	28
4956	29
4957	29
4958	29
4959	29
4960	29
4961	29
4962	29
4963	29
4964	29
4965	28
4966	28
4967	28
4968	30
4969	37
4970	55
4971	87
4972	135
4973	195
4974	252
4975	292
4976	310
4977	312
4978	314
4979	335
4980	383
4981	450
4982	522
4983	583
4984	626
4985	651
4986	662
4987	665
4988	665
4989	665
4990	665
4991	665
4992	665
4993	665
4994	665
4995	665
4996	665
4997	665
4998	665
4999	664
5000	661
5001	652
5002	633
5003	599
5004	549
5005	488
5006	431
5007	390
5008	373
5009	372
5010	370
5011	350
5012	303
5013	238
5014	169
5015	111
5016	72
5017	52
5018	45
5019	46
5020	49
5021	52
5022	54
5023	55
5024	56
5025	56
5026	56
5027	56
5028	56
5029	58
5030	60
5031	63
5032	67
5033	73
5034	81
5035	90
5036	100
5037	111
5038	121
5039	129
5040	137
5041	142
5042	145
5043	146
5044	144
5045	140
5046	136
5047	131
5048	124
5049	118
5050	113
5051	109
5052	105
5053	102
5054	100
5055	99
5056	98
5057	98
5058	98
5059	98
5060	98
5061	96
5062	94
5063	91
5064	87
5065	81
5066	73
5067	64
5068	54
5069	44
5070	34
5071	25
5072	17
5073	10
5074	6
5075	3
5076	1
5077	1
5078	0
5079	0
5080	0
5081	0
5082	0
5083	0
5084	0
5085	0
5086	0
5087	0
5088	0
5089	0
5090	0
5091	0
5092	0
5093	0
5094	0
5095	0
5096	0
5097	0
5098	0
5099	0
5100	0
5101	0
5102	0
5103	0
5104	0
5105	0
5106	0
5107	0
5108	0
5109	0
5110	0
5111	0
5112	0
5113	0
5114	0
5115	0
5116	0
5117	0
5118	0
5119	0
5120	0
5121	0
5122	0
5123	0
5124	0
5125	0
5126	0
5127	0
5128	0
5129	0
5130	0
5131	0
5132	0
5133	1
5134	1
5135	3
5136	5
5137	8
5138	12
5139	16
5140	20
5141	23
5142	24
5143	25
5144	25
5145	25
5146	26
5147	29
5148	33
5149	38
5150	43
5151	48
5152	52
5153	55
5154	57
5155	59
5156	59
5157	60
5158	60
5159	60
5160	60
5161	60
5162	60
5163	60
5164	59
5165	59
5166	59
5167	59
5168	64
5169	78
5170	111
5171	165
5172	242
5173	330
5174	410
5175	462
5176	480
5177	480
5178	490
5179	535
5180	619
5181	727
5182	834
5183	920
5184	979
5185	1010
5186	1023
5187	1027
5188	1027
5189	1027
5190	1027
5191	1027
5192	1027
5193	1027
5194	1027
5195	1027
5196	1027
5197	1027
5198	1027
5199	1025
5200	1018
5201	1000
5202	963
5203	906
5204	824
5205	733
5206	652
5207	601
5208	584
5209	587
5210	581
5211	542
5212	465
5213	366
5214	270
5215	197
5216	152
5217	134
5218	134
5219	142
5220	150
5221	156
5222	161
5223	163
5224	165
5225	165
5226	165
5227	165
5228	166
5229	169
5230	174
5231	182
5232	195
5233	211
5234	232
5235	259
5236	287
5237	317
5238	346
5239	374
5240	397
5241	412
5242	420
5243	420
5244	413
5245	402
5246	386
5247	368
5248	350
5249	334
5250	319
5251	306
5252	298
5253	291
5254	287
5255	285
5256	284
5257	284
5258	284
5259	284
5260	283
5261	280
5262	275
5263	268
5264	255
5265	239
5266	218
5267	192
5268	165
5269	135
5270	105
5271	77
5272	52
5273	34
5274	21
5275	13
5276	8
5277	6
5278	5
5279	5
5280	5
5281	5
5282	5
5283	5
5284	4
5285	4
5286	4
5287	4
5288	3
5289	3
5290	3
5291	2
5292	2
5293	2
5294	2
5295	1
5296	1
5297	1
5298	1
5299	0
5300	0
5301	0
5302	0
5303	0
5304	0
5305	0
5306	0
5307	0
5308	0
5309	0
5310	0
5311	0
5312	0
5313	0
5314	0
5315	0
5316	0
5317	0
5318	0
5319	0
5320	0
5321	0
5322	0
5323	0
5324	0
5325	0
5326	0
5327	0
5328	0
5329	0
5330	0
5331	0
5332	0
5333	0
5334	0
5335	2
5336	3
5337	5
5338	7
5339	10
5340	12
5341	13
5342	14
5343	14
5344	14
5345	14
5346	15
5347	17
5348	19
5349	22
5350	25
5351	28
5352	31
5353	33
5354	34
5355	35
5356	35
5357	36
5358	36
5359	36
5360	36
5361	36
5362	36
5363	36
5364	36
5365	36
5366	35
5367	36
5368	39
5369	53
5370	81
5371	126
5372	190
5373	257
5374	314
5375	348
5376	358
5377	358
5378	370
5379	411
5380	477
5381	559
5382	637
5383	697
5384	733
5385	750
5386	757
5387	759
5388	759
5389	759
5390	759
5391	759
5392	759
5393	759
5394	759
5395	758
5396	758
5397	758
5398	758
5399	757
5400	751
5401	736
5402	706
5403	659
5404	593
5405	524
5406	466
5407	432
5408	423
5409	424
5410	414
5411	374
5412	310
5413	231
5414	155
5415	99
5416	68
5417	55
5418	53
5419	56
5420	60
5421	64
5422	66
5423	68
5424	69
5425	69
5426	69
5427	69
5428	70
5429	71
5430	74
5431	79
5432	85
5433	93
5434	104
5435	117
5436	130
5437	144
5438	158
5439	169
5440	178
5441	184
5442	188
5443	188
5444	185
5445	181
5446	175
5447	168
5448	161
5449	154
5450	148
5451	143
5452	138
5453	134
5454	132
5455	130
5456	130
5457	129
5458	129
5459	129
5460	129
5461	127
5462	124
5463	120
5464	114
5465	106
5466	94
5467	82
5468	68
5469	54
5470	41
5471	29
5472	19
5473	11
5474	6
5475	3
5476	1
5477	0
5478	0
5479	0
5480	0
5481	0
5482	0
5483	0
5484	0
5485	0
5486	0
5487	0
5488	0
5489	0
5490	0
5491	0
5492	0
5493	0
5494	0
5495	0
5496	0
5497	0
5498	0
5499	0
5500	0
5501	0
5502	0
5503	0
5504	0
5505	0
5506	0
5507	0
5508	0
5509	0
5510	0
5511	0
5512	0
5513	0
5514	0
5515	0
5516	0
5517	0
5518	0
5519	0
5520	0
5521	0
5522	0
5523	0
5524	0
5525	0
5526	0
5527	0
5528	0
5529	0
5530	0
5531	0
5532	1
5533	2
5534	5
5535	9
5536	13
5537	19
5538	26
5539	33
5540	39
5541	44
5542	46
5543	47
5544	47
5545	48
5546	50
5547	54
5548	61
5549	70
5550	79
5551	88
5552	95
5553	101
5554	104
5555	106
5556	107
5557	108
5558	108
5559	108
5560	108
5561	108
5562	108
5563	108
5564	107
5565	105
5566	103
5567	102
5568	105
5569	116
5570	148
5571	201
5572	273
5573	350
5574	411
5575	444
5576	451
5577	452
5578	473
5579	529
5580	616
5581	716
5582	805
5583	868
5584	904
5585	919
5586	924
5587	924
5588	923
5589	922
5590	922
5591	923
5592	923
5593	923
5594	923
5595	924
5596	924
5597	924
5598	924
5599	921
5600	914
5601	896
5602	858
5603	798
5604	720
5605	638
5606	575
5607	541
5608	535
5609	534
5610	512
5611	453
5612	361
5613	255
5614	162
5615	95
5616	59
5617	44
5618	42
5619	46
5620	50
5621	54
5622	56
5623	57
5624	57
5625	57
5626	56
5627	57
5628	58
5629	61
5630	65
5631	71
5632	78
5633	86
5634	94
5635	102
5636	110
5637	118
5638	124
5639	130
5640	134
5641	137
5642	138
5643	138
5644	137
5645	134
5646	130
5647	125
5648	119
5649	112
5650	106
5651	100
5652	96
5653	92
5654	90
5655	89
5656	88
5657	88
5658	88
5659	87
5660	86
5661	83
5662	79
5663	73
5664	66
5665	58
5666	50
5667	42
5668	34
5669	26
5670	19
5671	14
5672	9
5673	5
5674	3
5675	1
5676	0
5677	0
5678	0
5679	0
5680	0
5681	0
5682	0
5683	0
5684	0
5685	0
5686	0
5687	0
5688	0
5689	0
5690	0
5691	0
5692	0
5693	0
5694	0
5695	0
5696	0
5697	0
5698	0
5699	0
5700	0
5701	0
5702	0
5703	0
5704	0
5705	0
5706	0
5707	0
5708	0
5709	0
5710	0
5711	0
5712	0
5713	0
5714	0
5715	0
5716	0
5717	0
5718	0
5719	0
5720	0
5721	0
5722	0
5723	0
5724	0
5725	0
5726	0
5727	0
5728	0
5729	0
5730	0
5731	0
5732	0
5733	1
5734	2
5735	3
5736	6
5737	9
5738	12
5739	15
5740	18
5741	19
5742	20
5743	20
5744	20
5745	21
5746	22
5747	25
5748	28
5749	33
5750	37
5751	40
5752	43
5753	45
5754	47
5755	48
5756	48
5757	48
5758	48
5759	48
5760	48
5761	48
5762	48
5763	48
5764	48
5765	47
5766	47
5767	48
5768	55
5769	73
5770	108
5771	165
5772	238
5773	308
5774	363
5775	389
5776	393
5777	395
5778	418
5779	473
5780	554
5781	644
5782	724
5783	781
5784	814
5785	830
5786	835
5787	837
5788	837
5789	837
5790	837
5791	837
5792	837
5793	837
5794	837
5795	837
5796	837
5797	837
5798	836
5799	833
5800	824
5801	803
5802	764
5803	704
5804	629
5805	557
5806	502
5807	476
5808	473
5809	472
5810	450
5811	397
5812	319
5813	231
5814	155
5815	103
5816	77
5817	68
5818	69
5819	74
5820	79
5821	83
5822	85
5823	86
5824	87
5825	87
5826	87
5827	87
5828	88
5829	90
5830	93
5831	98
5832	105
5833	116
5834	128
5835	142
5836	157
5837	173
5838	188
5839	201
5840	212
5841	218
5842	221
5843	220
5844	215
5845	209
5846	201
5847	192
5848	182
5849	173
5850	165
5851	158
5852	153
5853	149
5854	147
5855	146
5856	146
5857	145
5858	145
5859	145
5860	144
5861	142
5862	139
5863	134
5864	127
5865	117
5866	105
5867	91
5868	76
5869	59
5870	44
5871	31
5872	20
5873	12
5874	7
5875	4
5876	2
5877	2
5878	1
5879	1
5880	1
5881	1
5882	1
5883	1
5884	1
5885	1
5886	1
5887	1
5888	1
5889	1
5890	1
5891	1
5892	1
5893	1
5894	1
5895	1
5896	1
5897	1
5898	1
5899	1
5900	1
5901	1
5902	1
5903	1
5904	1
5905	1
5906	0
5907	0
5908	0
5909	0
5910	0
5911	0
5912	0
5913	0
5914	0
5915	0
5916	0
5917	0
5918	0
5919	0
5920	0
5921	0
5922	0
5923	0
5924	0
5925	0
5926	0
5927	0
5928	0
5929	0
5930	0
5931	0
5932	0
5933	0
5934	1
5935	2
5936	4
5937	5
5938	7
5939	9
5940	10
5941	11
5942	11
5943	11
5944	11
5945	12
5946	13
5947	15
5948	17
5949	21
5950	23
5951	25
5952	27
5953	28
5954	28
5955	29
5956	29
5957	29
5958	29
5959	29
5960	29
5961	29
5962	29
5963	29
5964	29
5965	29
5966	29
5967	32
5968	40
5969	60
5970	96
5971	150
5972	211
5973	268
5974	306
5975	322
5976	322
5977	327
5978	352
5979	403
5980	469
5981	538
5982	596
5983	637
5984	660
5985	670
5986	674
5987	675
5988	675
5989	675
5990	675
5991	675
5992	675
5993	675
5994	675
5995	675
5996	675
5997	675
5998	673
5999	670
6000	660
6001	638
6002	600
6003	545
6004	482
6005	424
6006	386
6007	372
6008	372
6009	368
6010	343
6011	294
6012	229
6013	161
6014	107
6015	70
6016	52
6017	46
6018	46
6019	49
6020	53
6021	55
6022	57
6023	58
6024	59
6025	59
6026	59
6027	59
6028	60
6029	62
6030	65
6031	70
6032	76
6033	84
6034	93
6035	103
6036	114
6037	125
6038	135
6039	143
6040	149
6041	153
6042	154
6043	153
6044	150
6045	146
6046	141
6047	134
6048	128
6049	123
6050	118
6051	113
6052	110
6053	107
6054	106
6055	105
6056	104
6057	104
6058	104
6059	104
6060	103
6061	101
6062	97
6063	93
6064	87
6065	79
6066	70
6067	60
6068	48
6069	37
6070	27
6071	19
6072	12
6073	7
6074	4
6075	2
6076	1
6077	0
6078	0
6079	0
6080	0
6081	0
6082	0
6083	0
6084	0
6085	0
6086	0
6087	0
6088	0
6089	0
6090	0
6091	0
6092	0
6093	0
6094	0
6095	0
6096	0
6097	0
6098	0
6099	0
6100	0
6101	0
6102	0
6103	0
6104	0
6105	0
6106	0
6107	0
6108	0
6109	0
6110	0
6111	0
6112	0
6113	0
6114	0
6115	0
6116	0
6117	0
6118	0
6119	0
6120	0
6121	0
6122	0
6123	0
6124	0
6125	0
6126	0
6127	0
6128	0
6129	0
6130	0
6131	0
6132	0
6133	1
6134	2
6135	4
6136	7
6137	11
6138	15
6139	19
6140	22
6141	24
6142	24
6143	25
6144	25
6145	25
6146	27
6147	30
6148	34
6149	40
6150	45
6151	49
6152	53
6153	56
6154	57
6155	58
6156	59
6157	59
6158	59
6159	59
6160	59
6161	59
6162	59
6163	59
6164	59
6165	58
6166	58
6167	60
6168	70
6169	92
6170	134
6171	193
6172	262
6173	326
6174	370
6175	388
6176	389
6177	394
6178	422
6179	482
6180	566
6181	655
6182	734
6183	790
6184	823
6185	838
6186	844
6187	845
6188	844
6189	844
6190	844
6191	844
6192	844
6193	844
6194	844
6195	844
6196	844
6197	844
6198	843
6199	838
6200	826
6201	800
6202	755
6203	691
6204	620
6205	554
6206	509
6207	493
6208	494
6209	494
6210	471
6211	417
6212	342
6213	261
6214	192
6215	145
6216	123
6217	116
6218	118
6219	122
6220	126
6221	128
6222	129
6223	130
6224	130
6225	130
6226	130
6227	131
6228	134
6229	138
6230	145
6231	154
6232	166
6233	179
6234	196
6235	212
6236	230
6237	246
6238	259
6239	269
6240	275
6241	275
6242	271
6243	263
6244	251
6245	238
6246	223
6247	209
6248	195
6249	184
6250	175
6251	169
6252	165
6253	163
6254	161
6255	161
6256	161
6257	161
6258	160
6259	159
6260	157
6261	152
6262	145
6263	136
6264	125
6265	111
6266	95
6267	78
6268	60
6269	44
6270	30
6271	19
6272	11
6273	5
6274	2
6275	1
6276	0
6277	0
6278	0
6279	0
6280	0
6281	0
6282	0
6283	0
6284	0
6285	0
6286	0
6287	0
6288	0
6289	0
6290	0
6291	0
6292	0
6293	0
6294	0
6295	0
6296	0
6297	0
6298	0
6299	0
6300	0
6301	0
6302	0
6303	0
6304	0
6305	0
6306	0
6307	0
6308	0
6309	0
6310	0
6311	0
6312	0
6313	0
6314	0
6315	0
6316	0
6317	0
6318	0
6319	0
6320	0
6321	0
6322	0
6323	0
6324	0
6325	0
6326	0
6327	0
6328	0
6329	0
6330	0
6331	0
6332	0
6333	0
6334	2
6335	4
6336	6
6337	9
6338	12
6339	15
6340	17
6341	18
6342	18
6343	18
6344	19
6345	19
6346	21
6347	23
6348	27
6349	31
6350	35
6351	38
6352	40
6353	42
6354	43
6355	43
6356	44
6357	44
6358	44
6359	44
6360	44
6361	44
6362	44
6363	44
6364	44
6365	43
6366	43
6367	45
6368	53
6369	71
6370	104
6371	151
6372	207
6373	258
6374	292
6375	305
6376	306
6377	311
6378	335
6379	385
6380	451
6381	519
6382	578
6383	620
6384	642
6385	652
6386	655
6387	656
6388	656
6389	656
6390	656
6391	656
6392	656
6393	656
6394	656
6395	656
6396	656
6397	656
6398	655
6399	651
6400	641
6401	620
6402	583
6403	534
6404	476
6405	423
6406	390
6407	377
6408	377
6409	374
6410	351
6411	303
6412	240
6413	175
6414	119
6415	82
6416	66
6417	63
6418	65
6419	70
6420	74
6421	77
6422	79
6423	81
6424	81
6425	81
6426	81
6427	81
6428	83
6429	85
6430	90
6431	96
6432	104
6433	114
6434	127
6435	140
6436	154
6437	168
6438	180
6439	190
6440	198
6441	202
6442	204
6443	202
6444	197
6445	191
6446	183
6447	175
6448	167
6449	159
6450	152
6451	146
6452	142
6453	139
6454	137
6455	135
6456	135
6457	135
6458	135
6459	135
6460	133
6461	130
6462	126
6463	120
6464	112
6465	102
6466	89
6467	76
6468	62
6469	48
6470	36
6471	25
6472	16
6473	9
6474	5
6475	2
6476	1
6477	0
6478	0
6479	0
6480	0
6481	0
6482	0
6483	0
6484	0
6485	0
6486	0
6487	0
6488	0
6489	0
6490	0
6491	0
6492	0
6493	0
6494	0
6495	0
6496	0
6497	0
6498	0
6499	0
6500	0
6501	0
6502	0
6503	0
6504	0
6505	0
6506	0
6507	0
6508	0
6509	0
6510	0
6511	0
6512	0
6513	0
6514	0
6515	0
6516	0
6517	0
6518	0
6519	0
6520	0
6521	0
6522	0
6523	0
6524	0
6525	0
6526	0
6527	0
6528	0
6529	0
6530	0
6531	1
6532	2
6533	4
6534	7
6535	11
6536	15
6537	20
6538	26
6539	29
6540	32
6541	33
6542	33
6543	33
6544	34
6545	36
6546	40
6547	45
6548	51
6549	58
6550	64
6551	70
6552	73
6553	76
6554	77
6555	78
6556	78
6557	79
6558	79
6559	78
6560	78
6561	78
6562	78
6563	77
6564	76
6565	75
6566	73
6567	75
6568	83
6569	102
6570	137
6571	191
6572	252
6573	309
6574	347
6575	360
6576	360
6577	364
6578	389
6579	441
6580	513
6581	587
6582	647
6583	687
6584	710
6585	718
6586	721
6587	721
6588	721
6589	721
6590	721
6591	721
6592	721
6593	721
6594	721
6595	721
6596	721
6597	720
6598	719
6599	713
6600	701
6601	676
6602	636
6603	578
6604	515
6605	457
6606	419
6607	406
6608	406
6609	401
6610	374
6611	319
6612	244
6613	167
6614	105
6615	65
6616	44
6617	38
6618	39
6619	41
6620	44
6621	46
6622	48
6623	48
6624	48
6625	48
6626	48
6627	49
6628	49
6629	51
6630	54
6631	57
6632	63
6633	70
6634	79
6635	88
6636	97
6637	105
6638	114
6639	121
6640	126
6641	129
6642	130
6643	129
6644	127
6645	123
6646	119
6647	114
6648	108
6649	103
6650	99
6651	95
6652	92
6653	90
6654	89
6655	88
6656	88
6657	88
6658	88
6659	88
6660	87
6661	86
6662	83
6663	79
6664	74
6665	67
6666	58
6667	49
6668	40
6669	31
6670	22
6671	15
6672	9
6673	5
6674	2
6675	1
6676	0
6677	0
6678	0
6679	0
6680	0
6681	0
6682	0
6683	0
6684	0
6685	0
6686	0
6687	0
6688	0
6689	0
6690	0
6691	0
6692	0
6693	0
6694	0
6695	0
6696	0
6697	0
6698	0
6699	0
6700	0
6701	0
6702	0
6703	0
6704	0
6705	0
6706	0
6707	0
6708	0
6709	0
6710	0
6711	0
6712	0
6713	0
6714	0
6715	0
6716	0
6717	0
6718	0
6719	0
6720	0
6721	0
6722	0
6723	0
6724	0
6725	0
6726	0
6727	0
6728	0
6729	0
6730	0
6731	0
6732	0
6733	1
6734	3
6735	5
6736	8
6737	12
6738	16
6739	19
6740	23
6741	24
6742	25
6743	25
6744	25
6745	26
6746	28
6747	32
6748	37
6749	42
6750	47
6751	51
6752	54
6753	56
6754	57
6755	58
6756	58
6757	58
6758	58
6759	58
6760	58
6761	58
6762	58
6763	58
6764	57
6765	57
6766	58
6767	62
6768	77
6769	112
6770	168
6771	249
6772	337
6773	414
6774	461
6775	476
6776	475
6777	488
6778	536
6779	623
6780	735
6781	842
6782	924
6783	978
6784	1005
6785	1016
6786	1018
6787	1019
6788	1018
6789	1018
6790	1018
6791	1018
6792	1018
6793	1018
6794	1018
6795	1018
6796	1018
6797	1018
6798	1016
6799	1009
6800	991
6801	953
6802	892
6803	808
6804	717
6805	639
6806	592
6807	579
6808	582
6809	573
6810	531
6811	451
6812	349
6813	253
6814	183
6815	143
6816	131
6817	134
6818	143
6819	152
6820	159
6821	163
6822	166
6823	167
6824	167
6825	167
6826	168
6827	169
6828	173
6829	179
6830	188
6831	202
6832	218
6833	240
6834	264
6835	292
6836	320
6837	348
6838	373
6839	393
6840	406
6841	412
6842	411
6843	404
6844	392
6845	376
6846	358
6847	340
6848	322
6849	307
6850	295
6851	285
6852	279
6853	275
6854	273
6855	272
6856	272
6857	272
6858	272
6859	271
6860	267
6861	261
6862	252
6863	239
6864	222
6865	202
6866	177
6867	149
6868	121
6869	93
6870	67
6871	45
6872	29
6873	18
6874	11
6875	7
6876	5
6877	5
6878	5
6879	5
6880	5
6881	4
6882	4
6883	4
6884	3
6885	3
6886	2
6887	2
6888	1
6889	1
6890	1
6891	0
6892	0
6893	0
6894	0
6895	0
6896	0
6897	0
6898	0
6899	0
6900	0
6901	0
6902	0
6903	0
6904	0
6905	0
6906	0
6907	0
6908	0
6909	0
6910	0
6911	0
6912	0
6913	0
6914	0
6915	0
6916	0
6917	0
6918	0
6919	0
6920	0
6921	0
6922	0
6923	0
6924	0
6925	0
6926	0
6927	0
6928	0
6929	0
6930	0
6931	0
6932	0
6933	1
6934	2
6935	4
6936	6
6937	9
6938	11
6939	13
6940	15
6941	16
6942	16
6943	16
6944	16
6945	17
6946	19
6947	22
6948	25
6949	29
6950	32
6951	34
6952	36
6953	38
6954	39
6955	39
6956	39
6957	39
6958	40
6959	40
6960	40
6961	40
6962	40
6963	39
6964	39
6965	39
6966	40
6967	45
6968	59
6969	88
6970	136
6971	200
6972	267
6973	322
6974	351
6975	358
6976	358
6977	372
6978	416
6979	488
6980	573
6981	650
6982	708
6983	741
6984	757
6985	763
6986	764
6987	764
6988	764
6989	763
6990	763
6991	763
6992	763
6993	763
6994	763
6995	763
6996	763
6997	763
6998	761
6999	754
7000	737
7001	705
7002	655
7003	589
7004	520
7005	466
7006	436
7007	430
7008	431
7009	418
7010	377
7011	307
7012	225
7013	151
7014	98
7015	70
7016	60
7017	60
7018	64
7019	69
7020	73
7021	75
7022	77
7023	78
7024	78
7025	78
7026	78
7027	79
7028	81
7029	84
7030	89
7031	96
7032	105
7033	116
7034	130
7035	144
7036	157
7037	171
7038	183
7039	192
7040	199
7041	201
7042	201
7043	199
7044	194
7045	187
7046	180
7047	172
7048	164
7049	157
7050	151
7051	146
7052	142
7053	139
7054	138
7055	137
7056	137
7057	137
7058	137
7059	136
7060	134
7061	131
7062	126
7063	119
7064	110
7065	98
7066	85
7067	71
7068	57
7069	44
7070	31
7071	21
7072	13
7073	8
7074	4
7075	2
7076	1
7077	1
7078	0
7079	0
7080	0
7081	0
7082	0
7083	0
7084	0
7085	0
7086	0
7087	0
7088	0
7089	0
7090	0
7091	0
7092	0
7093	0
7094	0
7095	0
7096	0
7097	0
7098	0
7099	0
7100	0
7101	0
7102	0
7103	0
7104	0
7105	0
7106	0
7107	0
7108	0
7109	0
7110	0
7111	0
7112	0
7113	0
7114	0
7115	0
7116	0
7117	0
7118	0
7119	0
7120	0
7121	0
7122	0
7123	0
7124	0
7125	0
7126	0
7127	0
7128	0
7129	0
7130	0
7131	1
7132	2
7133	4
7134	7
7135	11
7136	15
7137	20
7138	24
7139	27
7140	29
7141	30
7142	30
7143	30
7144	31
7145	34
7146	38
7147	44
7148	50
7149	56
7150	61
7151	65
7152	68
7153	70
7154	71
7155	71
7156	72
7157	72
7158	72
7159	72
7160	72
7161	71
7162	71
7163	71
7164	70
7165	68
7166	68
7167	71
7168	84
7169	116
7170	167
7171	232
7172	299
7173	349
7174	373
7175	376
7176	378
7177	400
7178	451
7179	524
7180	602
7181	668
7182	712
7183	737
7184	747
7185	751
7186	751
7187	750
7188	750
7189	750
7190	750
7191	750
7192	750
7193	750
7194	750
7195	750
7196	750
7197	749
7198	747
7199	740
7200	722
7201	686
7202	631
7203	562
7204	493
7205	443
7206	419
7207	416
7208	414
7209	392
7210	339
7211	264
7212	183
7213	116
7214	71
7215	48
7216	40
7217	39
7218	42
7219	45
7220	47
7221	48
7222	49
7223	49
7224	49
7225	49
7226	50
7227	51
7228	52
7229	55
7230	58
7231	64
7232	71
7233	79
7234	88
7235	98
7236	108
7237	117
7238	124
7239	130
7240	133
7241	135
7242	134
7243	132
7244	129
7245	125
7246	120
7247	114
7248	109
7249	105
7250	101
7251	98
7252	96
7253	94
7254	94
7255	93
7256	93
7257	93
7258	93
7259	92
7260	91
7261	88
7262	84
7263	79
7264	72
7265	64
7266	55
7267	45
7268	35
7269	26
7270	18
7271	12
7272	7
7273	4
7274	2
7275	1
7276	0
7277	0
7278	0
7279	0
7280	0
7281	0
7282	0
7283	0
7284	0
7285	0
7286	0
7287	0
7288	0
7289	0
7290	0
7291	0
7292	0
7293	0
7294	0
7295	0
7296	0
7297	0
7298	0
7299	0
7300	0
7301	0
7302	0
7303	0
7304	0
7305	0
7306	0
7307	0
7308	0
7309	0
7310	0
7311	0
7312	0
7313	0
7314	0
7315	0
7316	0
7317	0
7318	0
7319	0
7320	0
7321	0
7322	0
7323	0
7324	0
7325	0
7326	0
7327	0
7328	0
7329	0
7330	0
7331	0
7332	1
7333	3
7334	5
7335	8
7336	11
7337	16
7338	20
7339	23
7340	25
7341	26
7342	26
7343	26
7344	27
7345	28
7346	32
7347	36
7348	41
7349	47
7350	51
7351	55
7352	57
7353	59
7354	60
7355	60
7356	61
7357	61
7358	61
7359	61
7360	61
7361	61
7362	61
7363	61
7364	60
7365	60
7366	62
7367	71
7368	96
7369	141
7370	209
7371	291
7372	366
7373	420
7374	443
7375	445
7376	450
7377	482
7378	551
7379	648
7380	752
7381	841
7382	905
7383	942
7384	959
7385	966
7386	966
7387	966
7388	966
7389	966
7390	966
7391	966
7392	966
7393	966
7394	966
7395	966
7396	966
7397	965
7398	960
7399	948
7400	920
7401	870
7402	798
7403	713
7404	636
7405	581
7406	560
7407	560
7408	559
7409	530
7410	466
7411	375
7412	277
7413	195
7414	138
7415	109
7416	100
7417	100
7418	104
7419	108
7420	111
7421	112
7422	113
7423	113
7424	113
7425	113
7426	114
7427	117
7428	121
7429	127
7430	135
7431	146
7432	159
7433	173
7434	186
7435	199
7436	210
7437	219
7438	226
7439	229
7440	229
7441	226
7442	219
7443	210
7444	199
7445	187
7446	174
7447	163
7448	153
7449	145
7450	139
7451	134
7452	132
7453	130
7454	130
7455	130
7456	130
7457	129
7458	128
7459	126
7460	121
7461	115
7462	107
7463	96
7464	83
7465	69
7466	56
7467	43
7468	32
7469	22
7470	14
7471	9
7472	5
7473	2
7474	1
7475	0
7476	0
7477	0
7478	0
7479	0
7480	0
7481	0
7482	0
7483	0
7484	0
7485	0
7486	0
7487	0
7488	0
7489	0
7490	0
7491	0
7492	0
7493	0
7494	0
7495	0
7496	0
7497	0
7498	0
7499	0
7500	0
7501	0
7502	0
7503	0
7504	0
7505	0
7506	0
7507	0
7508	0
7509	0
7510	0
7511	0
7512	0
7513	0
7514	0
7515	0
7516	0
7517	0
7518	0
7519	0
7520	0
7521	0
7522	0
7523	0
7524	0
7525	0
7526	0
7527	0
7528	0
7529	0
7530	0
7531	0
7532	1
7533	2
7534	4
7535	6
7536	9
7537	12
7538	15
7539	17
7540	19
7541	19
7542	20
7543	20
7544	20
7545	22
7546	24
7547	28
7548	33
7549	37
7550	41
7551	43
7552	45
7553	47
7554	48
7555	48
7556	48
7557	48
7558	48
7559	48
7560	48
7561	48
7562	48
7563	48
7564	48
7565	48
7566	49
7567	57
7568	77
7569	115
7570	169
7571	233
7572	292
7573	334
7574	350
7575	352
7576	355
7577	382
7578	437
7579	511
7580	591
7581	659
7582	705
7583	733
7584	744
7585	748
7586	749
7587	749
7588	749
7589	748
7590	749
7591	749
7592	749
7593	749
7594	749
7595	749
7596	748
7597	747
7598	744
7599	734
7600	711
7601	670
7602	613
7603	547
7604	486
7605	444
7606	428
7607	428
7608	425
7609	400
7610	347
7611	274
7612	196
7613	132
7614	91
7615	70
7616	66
7617	68
7618	73
7619	78
7620	82
7621	84
7622	86
7623	86
7624	86
7625	86
7626	87
7627	88
7628	90
7629	95
7630	102
7631	111
7632	122
7633	136
7634	151
7635	166
7636	180
7637	195
7638	207
7639	216
7640	222
7641	225
7642	224
7643	220
7644	214
7645	207
7646	198
7647	189
7648	180
7649	172
7650	166
7651	161
7652	157
7653	155
7654	153
7655	153
7656	153
7657	153
7658	152
7659	151
7660	149
7661	144
7662	137
7663	128
7664	117
7665	103
7666	88
7667	73
7668	58
7669	43
7670	31
7671	21
7672	13
7673	7
7674	4
7675	2
7676	1
7677	1
7678	1
7679	1
7680	0
7681	0
7682	0
7683	0
7684	0
7685	0
7686	0
7687	1
7688	1
7689	1
7690	1
7691	1
7692	1
7693	1
7694	1
7695	1
7696	1
7697	1
7698	1
7699	1
7700	1
7701	1
7702	1
7703	1
7704	1
7705	1
7706	1
7707	1
7708	1
7709	1
7710	1
7711	1
7712	1
7713	1
7714	1
7715	1
7716	0
7717	0
7718	0
7719	0
7720	0
7721	0
7722	0
7723	0
7724	0
7725	0
7726	0
7727	0
7728	0
7729	0
7730	0
7731	0
7732	1
7733	1
7734	2
7735	4
7736	5
7737	7
7738	8
7739	10
7740	10
7741	10
7742	10
7743	11
7744	11
7745	12
7746	14
7747	17
7748	20
7749	22
7750	25
7751	27
7752	28
7753	29
7754	29
7755	30
7756	30
7757	30
7758	30
7759	30
7760	30
7761	30
7762	30
7763	29
7764	29
7765	29
7766	32
7767	41
7768	60
7769	93
7770	139
7771	193
7772	242
7773	276
7774	290
7775	290
7776	293
7777	315
7778	361
7779	424
7780	490
7781	548
7782	588
7783	611
7784	621
7785	625
7786	626
7787	626
7788	626
7789	626
7790	626
7791	626
7792	626
7793	626
7794	626
7795	626
7796	625
7797	624
7798	620
7799	610
7800	589
7801	555
7802	508
7803	453
7804	403
7805	369
7806	356
7807	356
7808	353
7809	333
7810	289
7811	229
7812	166
7813	112
7814	77
7815	61
7816	57
7817	58
7818	62
7819	65
7820	68
7821	70
7822	70
7823	71
7824	71
7825	71
7826	71
7827	72
7828	75
7829	78
7830	84
7831	92
7832	102
7833	114
7834	126
7835	140
7836	154
7837	166
7838	177
7839	184
7840	189
7841	190
7842	189
7843	186
7844	180
7845	173
7846	165
7847	158
7848	151
7849	144
7850	139
7851	135
7852	133
7853	131
7854	131
7855	130
7856	130
7857	130
7858	130
7859	129
7860	127
7861	123
7862	117
7863	109
7864	99
7865	87
7866	75
7867	61
7868	48
7869	35
7870	24
7871	16
7872	10
7873	5
7874	3
7875	1
7876	0
7877	0
7878	0
7879	0
7880	0
7881	0
7882	0
7883	0
7884	0
7885	0
7886	0
7887	0
7888	0
7889	0
7890	0
7891	0
7892	0
7893	0
7894	0
7895	0
7896	0
7897	0
7898	0
7899	0
7900	0
7901	0
7902	0
7903	0
7904	0
7905	0
7906	0
7907	0
7908	0
7909	0
7910	0
7911	0
7912	0
7913	0
7914	0
7915	0
7916	0
7917	0
7918	0
7919	0
7920	0
7921	0
7922	0
7923	0
7924	0
7925	0
7926	0
7927	0
7928	0
7929	0
7930	1
7931	1
7932	3
7933	6
7934	11
7935	18
7936	26
7937	34
7938	42
7939	48
7940	52
7941	53
7942	53
7943	54
7944	56
7945	60
7946	68
7947	78
7948	89
7949	101
7950	111
7951	117
7952	123
7953	126
7954	127
7955	128
7956	128
7957	128
7958	128
7959	128
7960	128
7961	128
7962	127
7963	127
7964	125
7965	123
7966	123
7967	128
7968	146
7969	181
7970	231
7971	291
7972	348
7973	387
7974	403
7975	404
7976	407
7977	429
7978	476
7979	541
7980	611
7981	666
7982	701
7983	718
7984	724
7985	725
7986	724
7987	724
7988	724
7989	724
7990	724
7991	724
7992	724
7993	724
7994	724
7995	724
7996	724
7997	723
7998	718
7999	706
8000	679
8001	637
8002	579
8003	513
8004	452
8005	412
8006	396
8007	396
8008	392
8009	367
8010	314
8011	242
8012	164
8013	101
8014	60
8015	39
8016	32
8017	32
8018	34
8019	36
8020	38
8021	39
8022	39
8023	39
8024	40
8025	40
8026	40
8027	41
8028	42
8029	45
8030	48
8031	54
8032	60
8033	68
8034	76
8035	85
8036	93
8037	101
8038	106
8039	110
8040	112
8041	113
8042	112
8043	110
8044	107
8045	103
8046	100
8047	96
8048	92
8049	88
8050	85
8051	83
8052	81
8053	80
8054	80
8055	79
8056	79
8057	79
8058	79
8059	78
8060	77
8061	74
8062	71
8063	65
8064	59
8065	51
8066	43
8067	34
8068	26
8069	18
8070	12
8071	8
8072	4
8073	2
8074	1
8075	0
8076	0
8077	0
8078	0
8079	0
8080	0
8081	0
8082	0
8083	0
8084	0
8085	0
8086	0
8087	0
8088	0
8089	0
8090	0
8091	0
8092	0
8093	0
8094	0
8095	0
8096	0
8097	0
8098	0
8099	0
8100	0
8101	0
8102	0
8103	0
8104	0
8105	0
8106	0
8107	0
8108	0
8109	0
8110	0
8111	0
8112	0
8113	0
8114	0
8115	0
8116	0
8117	0
8118	0
8119	0
8120	0
8121	0
8122	0
8123	0
8124	0
8125	0
8126	0
8127	0
8128	0
8129	0
8130	0
8131	1
8132	1
8133	3
8134	5
8135	9
8136	12
8137	16
8138	20
8139	23
8140	24
8141	25
8142	25
8143	25
8144	26
8145	29
8146	32
8147	37
8148	42
8149	47
8150	52
8151	55
8152	57
8153	58
8154	59
8155	60
8156	60
8157	60
8158	60
8159	60
8160	60
8161	59
8162	59
8163	59
8164	58
8165	59
8166	63
8167	78
8168	111
8169	167
8170	245
8171	333
8172	410
8173	459
8174	475
8175	475
8176	487
8177	534
8178	622
8179	733
8180	844
8181	934
8182	990
8183	1018
8184	1030
8185	1034
8186	1034
8187	1034
8188	1034
8189	1034
8190	1034
8191	1034
8192	1034
8193	1034
8194	1034
8195	1034
8196	1034
8197	1032
8198	1025
8199	1007
8200	971
8201	910
8202	829
8203	738
8204	660
8205	611
8206	596
8207	599
8208	591
8209	548
8210	467
8211	364
8212	261
8213	182
8214	135
8215	115
8216	113
8217	117
8218	122
8219	126
8220	129
8221	130
8222	130
8223	130
8224	130
8225	131
8226	132
8227	135
8228	141
8229	149
8230	159
8231	172
8232	187
8233	204
8234	222
8235	239
8236	254
8237	267
8238	276
8239	281
8240	281
8241	277
8242	268
8243	256
8244	243
8245	228
8246	214
8247	201
8248	190
8249	181
8250	175
8251	171
8252	168
8253	167
8254	166
8255	166
8256	166
8257	166
8258	164
8259	161
8260	156
8261	148
8262	138
8263	124
8264	109
8265	92
8266	74
8267	56
8268	41
8269	28
8270	17
8271	9
8272	5
8273	2
8274	0
8275	0
8276	0
8277	0
8278	0
8279	0
8280	0
8281	0
8282	0
8283	0
8284	0
8285	0
8286	0
8287	0
8288	0
8289	0
8290	0
8291	0
8292	0
8293	0
8294	0
8295	0
8296	0
8297	0
8298	0
8299	0
8300	0
8301	0
8302	0
8303	0
8304	0
8305	0
8306	0
8307	0
8308	0
8309	0
8310	0
8311	0
8312	0
8313	0
8314	0
8315	0
8316	0
8317	0
8318	0
8319	0
8320	0
8321	0
8322	0
8323	0
8324	0
8325	0
8326	0
8327	0
8328	0
8329	0
8330	0
8331	0
8332	1
8333	2
8334	4
8335	6
8336	10
8337	13
8338	16
8339	18
8340	19
8341	19
8342	19
8343	20
8344	20
8345	22
8346	26
8347	29
8348	34
8349	38
8350	42
8351	45
8352	46
8353	47
8354	48
8355	48
8356	48
8357	48
8358	48
8359	48
8360	48
8361	48
8362	48
8363	47
8364	47
8365	48
8366	52
8367	66
8368	95
8369	144
8370	210
8371	280
8372	340
8373	373
8374	381
8375	381
8376	396
8377	441
8378	516
8379	603
8380	687
8381	748
8382	787
8383	806
8384	813
8385	815
8386	815
8387	815
8388	815
8389	815
8390	815
8391	815
8392	815
8393	815
8394	815
8395	815
8396	814
8397	812
8398	806
8399	790
8400	758
8401	705
8402	636
8403	564
8404	504
8405	471
8406	464
8407	465
8408	452
8409	409
8410	336
8411	251
8412	170
8413	112
8414	78
8415	65
8416	63
8417	67
8418	71
8419	75
8420	78
8421	79
8422	80
8423	80
8424	80
8425	80
8426	81
8427	83
8428	87
8429	92
8430	100
8431	110
8432	122
8433	135
8434	149
8435	164
8436	177
8437	189
8438	198
8439	205
8440	208
8441	208
8442	206
8443	201
8444	194
8445	186
8446	178
8447	170
8448	163
8449	157
8450	151
8451	148
8452	145
8453	144
8454	143
8455	143
8456	143
8457	142
8458	142
8459	140
8460	136
8461	131
8462	123
8463	113
8464	102
8465	88
8466	75
8467	59
8468	46
8469	33
8470	23
8471	15
8472	9
8473	5
8474	3
8475	2
8476	2
8477	1
8478	1
8479	1
8480	1
8481	1
8482	1
8483	1
8484	1
8485	1
8486	1
8487	1
8488	1
8489	1
8490	1
8491	1
8492	1
8493	1
8494	1
8495	1
8496	1
8497	1
8498	1
8499	1
8500	1
8501	1
8502	1
8503	1
8504	1
8505	1
8506	1
8507	1
8508	1
8509	1
8510	1
8511	1
8512	1
8513	1
8514	1
8515	1
8516	1
8517	1
8518	1
8519	1
8520	1
8521	1
8522	0
8523	0
8524	0
8525	0
8526	0
8527	0
8528	0
8529	0
8530	0
8531	0
8532	1
8533	1
8534	2
8535	4
8536	6
8537	8
8538	10
8539	11
8540	11
8541	11
8542	11
8543	12
8544	12
8545	14
8546	16
8547	18
8548	21
8549	23
8550	25
8551	27
8552	28
8553	29
8554	29
8555	29
8556	29
8557	29
8558	29
8559	29
8560	29
8561	29
8562	29
8563	28
8564	28
8565	30
8566	37
8567	54
8568	86
8569	136
8570	201
8571	266
8572	315
8573	338
8574	342
8575	343
8576	365
8577	416
8578	489
8579	571
8580	644
8581	694
8582	724
8583	737
8584	742
8585	743
8586	743
8587	743
8588	743
8589	743
8590	743
8591	743
8592	743
8593	743
8594	743
8595	743
8596	743
8597	740
8598	732
8599	714
8600	680
8601	628
8602	562
8603	496
8604	446
8605	424
8606	421
8607	420
8608	400
8609	351
8610	280
8611	201
8612	133
8613	87
8614	62
8615	54
8616	54
8617	58
8618	61
8619	64
8620	66
8621	68
8622	68
8623	68
8624	68
8625	68
8626	69
8627	71
8628	74
8629	78
8630	84
8631	93
8632	104
8633	115
8634	127
8635	140
8636	152
8637	161
8638	170
8639	175
8640	177
8641	177
8642	175
8643	170
8644	164
8645	157
8646	150
8647	143
8648	137
8649	132
8650	128
8651	125
8652	123
8653	122
8654	121
8655	121
8656	121
8657	121
8658	120
8659	119
8660	116
8661	111
8662	105
8663	96
8664	86
8665	75
8666	62
8667	50
8668	37
8669	27
8670	18
8671	11
8672	7
8673	4
8674	2
8675	1
8676	0
8677	0
8678	0
8679	0
8680	0
8681	0
8682	0
8683	0
8684	0
8685	0
8686	0
8687	0
8688	0
8689	0
8690	0
8691	0
8692	0
8693	0
8694	0
8695	0
8696	0
8697	0
8698	0
8699	0
8700	0
8701	0
8702	0
8703	0
8704	0
8705	0
8706	0
8707	0
8708	0
8709	0
8710	0
8711	0
8712	1
8713	1
8714	1
8715	1
8716	1
8717	1
8718	1
8719	1
8720	1
8721	0
8722	0
8723	0
8724	0
8725	0
8726	0
8727	0
8728	0
8729	1
8730	1
8731	3
8732	6
8733	9
8734	15
8735	22
8736	29
8737	36
8738	43
8739	47
8740	49
8741	49
8742	49
8743	50
8744	52
8745	57
8746	65
8747	75
8748	85
8749	94
8750	102
8751	108
8752	111
8753	113
8754	115
8755	115
8756	115
8757	115
8758	115
8759	115
8760	115
8761	115
8762	114
8763	113
8764	111
8765	111
8766	117
8767	133
8768	166
8769	216
8770	279
8771	338
8772	381
8773	400
8774	402
8775	405
8776	425
8777	470
8778	534
8779	603
8780	659
8781	699
8782	721
8783	730
8784	733
8785	733
8786	732
8787	732
8788	732
8789	732
8790	732
8791	732
8792	732
8793	732
8794	732
8795	731
8796	730
8797	727
8798	715
8799	693
8800	652
8801	594
8802	525
8803	462
8804	417
8805	398
8806	396
8807	394
8808	373
8809	326
8810	257
8811	182
8812	121
8813	76
8814	51
8815	41
8816	39
8817	41
8818	43
8819	45
8820	47
8821	48
8822	48
8823	48
8824	48
8825	48
8826	49
8827	50
8828	53
8829	57
8830	62
8831	68
8832	76
8833	85
8834	95
8835	105
8836	114
8837	122
8838	127
8839	131
8840	132
8841	132
8842	130
8843	127
8844	122
8845	117
8846	112
8847	108
8848	103
8849	99
8850	96
8851	94
8852	93
8853	92
8854	92
8855	92
8856	92
8857	92
8858	91
8859	89
8860	87
8861	83
8862	78
8863	72
8864	64
8865	55
8866	45
8867	34
8868	25
8869	17
8870	11
8871	7
8872	4
8873	2
8874	1
8875	0
8876	0
8877	0
8878	0
8879	0
8880	0
8881	0
8882	0
8883	0
8884	0
8885	0
8886	0
8887	0
8888	0
8889	0
8890	0
8891	0
8892	0
8893	0
8894	0
8895	0
8896	0
8897	0
8898	0
8899	0
8900	0
8901	0
8902	0
8903	0
8904	0
8905	0
8906	0
8907	0
8908	0
8909	0
8910	0
8911	0
8912	0
8913	0
8914	0
8915	0
8916	0
8917	0
8918	0
8919	0
8920	0
8921	0
8922	0
8923	0
8924	0
8925	0
8926	0
8927	0
8928	0
8929	0
8930	0
8931	1
8932	2
8933	4
8934	6
8935	9
8936	13
8937	17
8938	20
8939	22
8940	22
8941	23
8942	23
8943	23
8944	25
8945	28
8946	33
8947	38
8948	43
8949	48
8950	52
8951	54
8952	56
8953	57
8954	57
8955	58
8956	58
8957	58
8958	58
8959	58
8960	58
8961	58
8962	57
8963	57
8964	57
8965	60
8966	69
8967	90
8968	129
8969	186
8970	252
8971	316
8972	360
8973	379
8974	381
8975	384
8976	408
8977	463
8978	543
8979	632
8980	714
8981	773
8982	810
8983	829
8984	835
8985	836
8986	836
8987	836
8988	836
8989	836
8990	836
8991	836
8992	836
8993	836
8994	836
8995	836
8996	835
8997	830
8998	819
8999	795
9000	752
9001	691
9002	623
9003	557
9004	513
9005	495
9006	496
9007	497
9008	477
9009	427
9010	352
9011	266
9012	189
9013	134
9014	103
9015	89
9016	87
9017	89
9018	92
9019	95
9020	96
9021	97
9022	97
9023	97
9024	97
9025	99
9026	101
9027	105
9028	111
9029	119
9030	128
9031	138
9032	149
9033	161
9034	170
9035	179
9036	186
9037	190
9038	192
9039	191
9040	187
9041	181
9042	173
9043	164
9044	154
9045	145
9046	136
9047	129
9048	123
9049	118
9050	115
9051	112
9052	111
9053	110
9054	110
9055	110
9056	109
9057	108
9058	105
9059	102
9060	96
9061	88
9062	78
9063	68
9064	57
9065	46
9066	36
9067	27
9068	19
9069	13
9070	8
9071	5
9072	2
9073	1
9074	0
9075	0
9076	0
9077	0
9078	0
9079	0
9080	0
9081	0
9082	0
9083	0
9084	0
9085	0
9086	0
9087	0
9088	0
9089	0
9090	0
9091	0
9092	0
9093	0
9094	0
9095	0
9096	0
9097	0
9098	0
9099	0
9100	0
9101	0
9102	0
9103	0
9104	0
9105	0
9106	0
9107	0
9108	0
9109	0
9110	0
9111	0
9112	0
9113	0
9114	0
9115	0
9116	0
9117	0
9118	0
9119	0
9120	0
9121	0
9122	0
9123	0
9124	0
9125	0
9126	0
9127	0
9128	0
9129	0
9130	0
9131	1
9132	2
9133	4
9134	6
9135	10
9136	13
9137	16
9138	19
9139	20
9140	21
9141	21
9142	21
9143	22
9144	24
9145	27
9146	31
9147	36
9148	40
9149	44
9150	47
9151	49
9152	51
9153	51
9154	52
9155	52
9156	52
9157	52
9158	52
9159	52
9160	52
9161	52
9162	52
9163	51
9164	51
9165	52
9166	60
9167	78
9168	112
9169	164
9170	228
9171	290
9172	334
9173	354
9174	356
9175	359
9176	383
9177	438
9178	514
9179	598
9180	668
9181	717
9182	746
9183	759
9184	763
9185	763
9186	763
9187	763
9188	763
9189	763
9190	763
9191	763
9192	763
9193	763
9194	763
9195	763
9196	763
9197	759
9198	749
9199	728
9200	689
9201	634
9202	568
9203	505
9204	460
9205	441
9206	440
9207	439
9208	416
9209	362
9210	288
9211	209
9212	144
9213	103
9214	82
9215	79
9216	83
9217	91
9218	99
9219	105
9220	109
9221	112
9222	113
9223	114
9224	114
9225	114
9226	115
9227	118
9228	122
9229	130
9230	141
9231	155
9232	173
9233	194
9234	217
9235	241
9236	264
9237	284
9238	301
9239	312
9240	318
9241	318
9242	314
9243	307
9244	297
9245	286
9246	275
9247	264
9248	253
9249	244
9250	237
9251	230
9252	226
9253	223
9254	222
9255	221
9256	221
9257	221
9258	220
9259	218
9260	214
9261	206
9262	194
9263	181
9264	163
9265	142
9266	119
9267	95
9268	72
9269	51
9270	34
9271	21
9272	12
9273	7
9274	4
9275	3
9276	3
9277	3
9278	3
9279	3
9280	3
9281	3
9282	3
9283	3
9284	3
9285	3
9286	3
9287	3
9288	3
9289	3
9290	3
9291	2
9292	2
9293	2
9294	2
9295	2
9296	2
9297	2
9298	2
9299	1
9300	1
9301	1
9302	1
9303	1
9304	1
9305	1
9306	0
9307	0
9308	0
9309	0
9310	0
9311	0
9312	0
9313	0
9314	0
9315	0
9316	0
9317	0
9318	0
9319	0
9320	0
9321	0
9322	0
9323	0
9324	0
9325	0
9326	0
9327	0
9328	0
9329	0
9330	0
9331	0
9332	1
9333	3
9334	4
9335	6
9336	9
9337	11
9338	12
9339	13
9340	13
9341	13
9342	14
9343	14
9344	16
9345	18
9346	21
9347	24
9348	27
9349	29
9350	31
9351	33
9352	34
9353	34
9354	34
9355	34
9356	34
9357	34
9358	34
9359	34
9360	34
9361	34
9362	34
9363	34
9364	34
9365	36
9366	45
9367	64
9368	100
9369	150
9370	212
9371	269
9372	309
9373	326
9374	326
9375	331
9376	358
9377	413
9378	488
9379	567
9380	630
9381	672
9382	696
9383	706
9384	709
9385	710
9386	710
9387	710
9388	710
9389	710
9390	710
9391	710
9392	710
9393	710
9394	710
9395	709
9396	708
9397	705
9398	695
9399	673
9400	635
9401	583
9402	520
9403	462
9404	422
9405	406
9406	407
9407	403
9408	378
9409	325
9410	253
9411	179
9412	121
9413	84
9414	65
9415	62
9416	65
9417	69
9418	72
9419	75
9420	76
9421	77
9422	77
9423	77
9424	78
9425	78
9426	80
9427	82
9428	87
9429	93
9430	101
9431	111
9432	123
9433	137
9434	151
9435	164
9436	176
9437	187
9438	194
9439	198
9440	198
9441	196
9442	192
9443	186
9444	178
9445	170
9446	162
9447	154
9448	148
9449	143
9450	139
9451	136
9452	135
9453	134
9454	134
9455	134
9456	134
9457	133
9458	132
9459	129
9460	125
9461	119
9462	111
9463	101
9464	88
9465	74
9466	61
9467	47
9468	34
9469	23
9470	15
9471	9
9472	5
9473	3
9474	1
9475	1
9476	0
9477	0
9478	0
9479	0
9480	0
9481	0
9482	0
9483	0
9484	0
9485	0
9486	0
9487	0
9488	0
9489	0
9490	0
9491	0
9492	0
9493	0
9494	0
9495	0
9496	0
9497	0
9498	0
9499	0
9500	0
9501	0
9502	0
9503	0
9504	0
9505	0
9506	0
9507	0
9508	0
9509	0
9510	0
9511	0
9512	0
9513	0
9514	0
9515	0
9516	0
9517	0
9518	0
9519	0
9520	0
9521	0
9522	0
9523	0
9524	0
9525	0
9526	0
9527	0
9528	0
9529	1
9530	2
9531	3
9532	5
9533	8
9534	12
9535	15
9536	19
9537	22
9538	24
9539	25
9540	25
9541	25
9542	26
9543	28
9544	31
9545	35
9546	41
9547	46
9548	50
9549	54
9550	57
9551	58
9552	59
9553	59
9554	59
9555	60
9556	60
9557	60
9558	59
9559	59
9560	59
9561	59
9562	58
9563	57
9564	56
9565	58
9566	66
9567	87
9568	126
9569	183
9570	250
9571	310
9572	348
9573	361
9574	360
9575	367
9576	400
9577	462
9578	541
9579	617
9580	676
9581	712
9582	731
9583	738
9584	741
9585	741
9586	741
9587	741
9588	741
9589	741
9590	741
9591	741
9592	741
9593	741
9594	741
9595	741
9596	739
9597	735
9598	723
9599	698
9600	655
9601	595
9602	526
9603	465
9604	427
9605	415
9606	416
9607	408
9608	374
9609	311
9610	230
9611	154
9612	97
9613	63
9614	48
9615	44
9616	46
9617	49
9618	52
9619	54
9620	55
9621	56
9622	56
9623	56
9624	56
9625	56
9626	58
9627	60
9628	64
9629	69
9630	76
9631	84
9632	94
9633	104
9634	114
9635	124
9636	134
9637	142
9638	148
9639	151
9640	152
9641	151
9642	148
9643	143
9644	137
9645	131
9646	125
9647	120
9648	115
9649	112
9650	109
9651	107
9652	105
9653	104
9654	104
9655	104
9656	104
9657	104
9658	103
9659	100
9660	96
9661	91
9662	84
9663	76
9664	66
9665	56
9666	46
9667	36
9668	26
9669	18
9670	12
9671	7
9672	4
9673	2
9674	1
9675	0
9676	0
9677	0
9678	0
9679	0
9680	0
9681	0
9682	0
9683	0
9684	0
9685	0
9686	0
9687	0
9688	0
9689	0
9690	0
9691	0
9692	0
9693	0
9694	0
9695	0
9696	0
9697	0
9698	0
9699	0
9700	0
9701	0
9702	0
9703	0
9704	0
9705	0
9706	0
9707	0
9708	0
9709	0
9710	0
9711	0
9712	0
9713	0
9714	0
9715	0
9716	0
9717	0
9718	0
9719	0
9720	0
9721	0
9722	0
9723	0
9724	0
9725	0
9726	0
9727	0
9728	0
9729	0
9730	1
9731	2
9732	3
9733	6
9734	9
9735	13
9736	17
9737	21
9738	24
9739	26
9740	27
9741	27
9742	27
9743	28
9744	31
9745	34
9746	40
9747	46
9748	52
9749	56
9750	60
9751	63
9752	64
9753	65
9754	65
9755	65
9756	65
9757	65
9758	65
9759	65
9760	65
9761	65
9762	64
9763	64
9764	64
9765	70
9766	86
9767	123
9768	185
9769	265
9770	353
9771	423
9772	463
9773	473
9774	473
9775	492
9776	550
9777	644
9778	755
9779	858
9780	936
9781	984
9782	1008
9783	1017
9784	1019
9785	1019
9786	1019
9787	1019
9788	1019
9789	1019
9790	1019
9791	1019
9792	1019
9793	1019
9794	1019
9795	1019
9796	1017
9797	1009
9798	990
9799	949
9800	883
9801	799
9802	708
9803	636
9804	596
9805	587
9806	588
9807	570
9808	512
9809	417
9810	306
9811	201
9812	122
9813	76
9814	54
9815	49
9816	50
9817	54
9818	57
9819	59
9820	60
9821	61
9822	61
9823	61
9824	61
9825	63
9826	65
9827	69
9828	74
9829	80
9830	87
9831	95
9832	103
9833	111
9834	118
9835	125
9836	130
9837	134
9838	136
9839	137
9840	136
9841	134
9842	130
9843	126
9844	121
9845	115
9846	109
9847	103
9848	98
9849	93
9850	90
9851	88
9852	86
9853	86
9854	86
9855	86
9856	85
9857	84
9858	81
9859	78
9860	72
9861	66
9862	59
9863	51
9864	43
9865	35
9866	27
9867	20
9868	14
9869	10
9870	6
9871	3
9872	2
9873	1
9874	0
9875	0
9876	0
9877	0
9878	0
9879	0
9880	0
9881	0
9882	0
9883	0
9884	0
9885	0
9886	0
9887	0
9888	0
9889	0
9890	0
9891	0
9892	0
9893	0
9894	0
9895	0
9896	0
9897	0
9898	0
9899	0
9900	0
9901	0
9902	0
9903	0
9904	0
9905	0
9906	0
9907	0
9908	0
9909	0
9910	0
9911	0
9912	0
9913	0
9914	0
9915	0
9916	0
9917	0
9918	0
9919	0
9920	0
9921	0
9922	0
9923	0
9924	0
9925	0
9926	0
9927	0
9928	0
9929	0
9930	1
9931	2
9932	4
9933	6
9934	9
9935	13
9936	17
9937	20
9938	22
9939	23
9940	23
9941	23
9942	23
9943	25
9944	27
9945	31
9946	36
9947	41
9948	45
9949	49
9950	52
9951	54
9952	55
9953	56
9954	56
9955	56
9956	56
9957	56
9958	56
9959	56
9960	56
9961	56
9962	55
9963	55
9964	56
9965	61
9966	77
9967	112
9968	169
9969	244
9970	323
9971	385
9972	419
9973	426
9974	426
9975	444
9976	497
9977	578
9978	671
9979	757
9980	821
9981	860
9982	880
9983	887
9984	889
9985	889
9986	889
9987	889
9988	889
9989	889
9990	889
9991	889
9992	889
9993	889
9994	889
9995	888
9996	886
9997	878
9998	858
9999	820
10000	760
10001	681
10002	600
10003	537
10004	504
10005	498
10006	499
10007	483
10008	433
10009	356
10010	269
10011	190
10012	135
10013	106
10014	97
10015	101
10016	110
10017	119
10018	127
10019	133
10020	137
10021	139
10022	140
10023	140
10024	140
10025	141
10026	143
10027	147
10028	154
10029	165
10030	180
10031	201
10032	226
10033	252
10034	280
10035	308
10036	334
10037	354
10038	368
10039	376
10040	379
10041	376
10042	368
10043	357
10044	343
10045	330
10046	316
10047	302
10048	291
10049	281
10050	273
10051	267
10052	263
10053	262
10054	261
10055	261
10056	261
10057	261
10058	259
10059	255
10060	248
10061	237
10062	222
10063	202
10064	177
10065	151
10066	124
10067	96
10068	70
10069	49
10070	33
10071	21
10072	14
10073	9
10074	7
10075	5
10076	5
10077	5
10078	5
10079	5
10080	5
10081	5
10082	5
10083	4
10084	4
10085	4
10086	4
10087	4
10088	4
10089	3
10090	3
10091	3
10092	2
10093	2
10094	2
10095	2
10096	1
10097	1
10098	1
10099	0
10100	0
10101	0
10102	0
10103	0
10104	0
10105	0
10106	0
10107	0
10108	0
10109	0
10110	0
10111	0
10112	0
10113	0
10114	0
10115	0
10116	0
10117	0
10118	0
10119	0
10120	0
10121	0
10122	0
10123	0
10124	0
10125	0
10126	0
10127	0
10128	0
10129	0
10130	0
10131	1
10132	3
10133	4
10134	6
10135	9
10136	11
10137	13
10138	15
10139	16
10140	16
10141	16
10142	16
10143	17
10144	19
10145	22
10146	25
10147	29
10148	32
10149	34
10150	36
10151	37
10152	38
10153	38
10154	38
10155	38
10156	38
10157	38
10158	38
10159	38
10160	38
10161	38
10162	38
10163	37
10164	38
10165	44
10166	58
10167	88
10168	133
10169	188
10170	242
10171	284
10172	303
10173	307
10174	308
10175	325
10176	365
10177	429
10178	498
10179	560
10180	605
10181	632
10182	645
10183	650
10184	652
10185	652
10186	652
10187	652
10188	652
10189	652
10190	652
10191	652
10192	652
10193	652
10194	652
10195	651
10196	649
10197	642
10198	625
10199	593
10200	546
10201	488
10202	433
10203	391
10204	372
10205	370
10206	370
10207	356
10208	317
10209	256
10210	191
10211	131
10212	92
10213	70
10214	63
10215	64
10216	68
10217	72
10218	75
10219	77
10220	79
10221	79
10222	80
10223	80
10224	80
10225	81
10226	83
10227	86
10228	92
10229	100
10230	110
10231	122
10232	136
10233	151
10234	166
10235	179
10236	190
10237	199
10238	204
10239	205
10240	204
10241	200
10242	195
10243	188
10244	180
10245	172
10246	164
10247	157
10248	151
10249	146
10250	143
10251	141
10252	139
10253	139
10254	139
10255	139
10256	138
10257	138
10258	136
10259	132
10260	127
10261	119
10262	109
10263	96
10264	83
10265	68
10266	52
10267	39
10268	28
10269	17
10270	10
10271	6
10272	3
10273	1
10274	1
10275	0
10276	0
10277	0
10278	0
10279	0
10280	0
10281	0
10282	0
10283	0
10284	0
10285	0
10286	0
10287	0
10288	0
10289	0
10290	0
10291	0
10292	0
10293	0
10294	0
10295	0
10296	0
10297	0
10298	0
10299	0
10300	0
10301	0
10302	0
10303	0
10304	0
10305	0
10306	0
10307	0
10308	0
10309	0
10310	0
10311	0
10312	0
10313	0
10314	0
10315	0
10316	0
10317	0
10318	0
10319	0
10320	0
10321	0
10322	0
10323	0
10324	0
10325	0
10326	0
10327	0
10328	0
10329	0
10330	0
10331	1
10332	2
10333	4
10334	6
10335	8
10336	10
10337	12
10338	12
10339	13
10340	13
10341	13
10342	13
10343	15
10344	18
10345	21
10346	24
10347	27
10348	29
10349	31
10350	32
10351	33
10352	34
10353	34
10354	34
10355	34
10356	34
10357	34
10358	34
10359	34
10360	34
10361	34
10362	33
10363	34
10364	36
10365	42
10366	58
10367	88
10368	133
10369	189
10370	244
10371	286
10372	306
10373	309
10374	309
10375	324
10376	365
10377	425
10378	494
10379	557
10380	604
10381	632
10382	646
10383	651
10384	653
10385	653
10386	653
10387	653
10388	653
10389	653
10390	653
10391	653
10392	653
10393	653
10394	653
10395	652
10396	649
10397	641
10398	623
10399	591
10400	544
10401	486
10402	431
10403	388
10404	369
10405	367
10406	367
10407	353
10408	313
10409	254
10410	187
10411	127
10412	83
10413	59
10414	50
10415	50
10416	52
10417	55
10418	57
10419	59
10420	60
10421	60
10422	60
10423	60
10424	61
10425	61
10426	63
10427	65
10428	70
10429	76
10430	84
10431	93
10432	104
10433	116
10434	127
10435	137
10436	145
10437	153
10438	156
10439	158
10440	157
10441	154
10442	150
10443	144
10444	137
10445	131
10446	125
10447	120
10448	116
10449	112
10450	110
10451	108
10452	107
10453	107
10454	107
10455	107
10456	106
10457	106
10458	104
10459	102
10460	97
10461	91
10462	83
10463	74
10464	63
10465	52
10466	40
10467	30
10468	21
10469	13
10470	8
10471	4
10472	2
10473	1
10474	0
10475	0
10476	0
10477	0
10478	0
10479	0
10480	0
10481	0
10482	0
10483	0
10484	0
10485	0
10486	0
10487	0
10488	0
10489	0
10490	0
10491	0
10492	0
10493	0
10494	0
10495	0
10496	0
10497	0
10498	0
10499	0
10500	0
10501	0
10502	0
10503	0
10504	0
10505	0
10506	0
10507	0
10508	0
10509	0
10510	0
10511	0
10512	0
10513	0
10514	0
10515	0
10516	0
10517	0
10518	0
10519	0
10520	0
10521	0
10522	0
10523	0
10524	0
10525	0
10526	0
10527	0
10528	0
10529	1
10530	2
10531	5
10532	8
10533	13
10534	19
10535	25
10536	31
10537	36
10538	39
10539	40
10540	41
10541	41
10542	41
10543	44
10544	48
10545	55
10546	63
10547	72
10548	80
10549	87
10550	91
10551	94
10552	95
10553	96
10554	96
10555	96
10556	96
10557	96
10558	96
10559	96
10560	96
10561	95
10562	94
10563	93
10564	94
10565	101
10566	117
10567	152
10568	203
10569	268
10570	331
10571	377
10572	398
10573	400
10574	403
10575	428
10576	487
10577	571
10578	665
10579	743
10580	799
10581	829
10582	839
10583	841
10584	840
10585	840
10586	840
10587	840
10588	840
10589	841
10590	841
10591	841
10592	841
10593	841
10594	841
10595	839
10596	835
10597	824
10598	801
10599	760
10600	702
10601	633
10602	567
10603	520
10604	499
10605	498
10606	495
10607	468
10608	407
10609	318
10610	220
10611	136
10612	77
10613	46
10614	35
10615	34
10616	37
10617	40
10618	42
10619	43
10620	43
10621	43
10622	42
10623	42
10624	43
10625	44
10626	46
10627	48
10628	52
10629	57
10630	62
10631	68
10632	75
10633	82
10634	89
10635	96
10636	102
10637	106
10638	109
10639	110
10640	109
10641	107
10642	105
10643	101
10644	97
10645	92
10646	88
10647	84
10648	80
10649	77
10650	75
10651	74
10652	74
10653	74
10654	74
10655	73
10656	73
10657	72
10658	70
10659	67
10660	64
10661	59
10662	54
10663	48
10664	41
10665	34
10666	27
10667	20
10668	14
10669	9
10670	5
10671	3
10672	1
10673	1
10674	0
10675	0
10676	0
10677	0
10678	0
10679	0
10680	0
10681	0
10682	0
10683	0
10684	0
10685	0
10686	0
10687	0
10688	0
10689	0
10690	0
10691	0
10692	0
10693	0
10694	0
10695	0
10696	0
10697	0
10698	0
10699	0
10700	0
10701	0
10702	0
10703	0
10704	0
10705	0
10706	0
10707	0
10708	0
10709	0
10710	0
10711	0
10712	0
10713	0
10714	0
10715	0
10716	0
10717	0
10718	0
10719	0
10720	0
10721	0
10722	0
10723	0
10724	0
10725	0
10726	0
10727	0
10728	0
10729	1
10730	1
10731	3
10732	5
10733	7
10734	10
10735	14
10736	17
10737	19
10738	21
10739	21
10740	22
10741	22
10742	22
10743	24
10744	27
10745	32
10746	37
10747	42
10748	47
10749	50
10750	53
10751	54
10752	55
10753	55
10754	55
10755	56
10756	56
10757	56
10758	56
10759	55
10760	55
10761	55
10762	54
10763	54
10764	56
10765	66
10766	91
10767	138
10768	207
10769	289
10770	365
10771	420
10772	442
10773	444
10774	449
10775	483
10776	555
10777	652
10778	756
10779	842
10780	901
10781	931
10782	944
10783	948
10784	948
10785	948
10786	948
10787	948
10788	948
10789	948
10790	948
10791	948
10792	948
10793	948
10794	947
10795	946
10796	942
10797	929
10798	901
10799	851
10800	779
10801	695
10802	617
10803	563
10804	541
10805	542
10806	541
10807	511
10808	445
10809	354
10810	259
10811	183
10812	137
10813	119
10814	119
10815	128
10816	137
10817	144
10818	150
10819	153
10820	154
10821	155
10822	155
10823	155
10824	156
10825	158
10826	164
10827	172
10828	183
10829	198
10830	218
10831	242
10832	270
10833	298
10834	326
10835	352
10836	373
10837	387
10838	394
10839	395
10840	389
10841	379
10842	366
10843	351
10844	335
10845	318
10846	304
10847	290
10848	280
10849	273
10850	268
10851	265
10852	264
10853	263
10854	264
10855	264
10856	263
10857	260
10858	255
10859	247
10860	236
10861	221
10862	202
10863	177
10864	149
10865	121
10866	93
10867	67
10868	44
10869	28
10870	16
10871	9
10872	6
10873	4
10874	3
10875	3
10876	3
10877	3
10878	3
10879	3
10880	2
10881	2
10882	2
10883	1
10884	1
10885	1
10886	1
10887	0
10888	0
10889	0
10890	0
10891	0
10892	0
10893	0
10894	0
10895	0
10896	0
10897	0
10898	0
10899	0
10900	0
10901	0
10902	0
10903	0
10904	0
10905	0
10906	0
10907	0
10908	0
10909	0
10910	0
10911	0
10912	0
10913	0
10914	0
10915	0
10916	0
10917	0
10918	0
10919	0
10920	0
10921	0
10922	0
10923	0
10924	0
10925	0
10926	0
10927	0
10928	0
10929	0
10930	1
10931	2
10932	3
10933	5
10934	8
10935	11
10936	14
10937	15
10938	16
10939	16
10940	17
10941	17
10942	17
10943	19
10944	21
10945	25
10946	28
10947	32
10948	35
10949	37
10950	39
10951	39
10952	40
10953	40
10954	40
10955	40
10956	40
10957	40
10958	40
10959	40
10960	40
10961	40
10962	39
10963	39
10964	43
10965	55
10966	80
10967	125
10968	188
10969	259
10970	321
10971	361
10972	373
10973	373
10974	383
10975	420
10976	486
10977	571
10978	655
10979	720
10980	762
10981	785
10982	793
10983	796
10984	796
10985	796
10986	796
10987	796
10988	796
10989	796
10990	796
10991	796
10992	796
10993	796
10994	796
10995	795
10996	790
10997	776
10998	748
10999	700
11000	634
11001	562
11002	499
11003	459
11004	447
11005	448
11006	440
11007	405
11008	340
11009	259
11010	179
11011	119
11012	83
11013	67
11014	66
11015	71
11016	76
11017	80
11018	83
11019	85
11020	87
11021	87
11022	87
11023	87
11024	88
11025	89
11026	92
11027	97
11028	103
11029	111
11030	121
11031	134
11032	147
11033	161
11034	175
11035	187
11036	197
11037	205
11038	209
11039	211
11040	209
11041	204
11042	197
11043	188
11044	179
11045	170
11046	161
11047	153
11048	147
11049	143
11050	140
11051	138
11052	137
11053	136
11054	136
11055	136
11056	135
11057	134
11058	131
11059	126
11060	120
11061	112
11062	102
11063	90
11064	76
11065	62
11066	49
11067	36
11068	25
11069	16
11070	10
11071	5
11072	3
11073	1
11074	0
11075	0
11076	0
11077	0
11078	0
11079	0
11080	0
11081	0
11082	0
11083	0
11084	0
11085	0
11086	0
11087	0
11088	0
11089	0
11090	0
11091	0
11092	0
11093	0
11094	0
11095	0
11096	0
11097	0
11098	0
11099	0
11100	0
11101	0
11102	0
11103	0
11104	1
11105	1
11106	1
11107	1
11108	1
11109	1
11110	1
11111	1
11112	1
11113	1
11114	1
11115	1
11116	1
11117	0
11118	0
11119	0
11120	0
11121	0
11122	0
11123	0
11124	0
11125	0
11126	0
11127	0
11128	0
11129	0
11130	1
11131	1
11132	3
11133	4
11134	5
11135	6
11136	7
11137	8
11138	9
11139	9
11140	9
11141	9
11142	9
11143	10
11144	12
11145	14
11146	17
11147	19
11148	21
11149	22
11150	23
11151	24
11152	24
11153	24
11154	24
11155	24
11156	24
11157	24
11158	24
11159	24
11160	24
11161	24
11162	24
11163	25
11164	30
11165	44
11166	73
11167	119
11168	181
11169	246
11170	298
11171	326
11172	332
11173	333
11174	349
11175	393
11176	460
11177	539
11178	609
11179	662
11180	694
11181	709
11182	715
11183	716
11184	717
11185	717
11186	717
11187	717
11188	717
11189	717
11190	717
11191	717
11192	717
11193	717
11194	716
11195	714
11196	708
11197	693
11198	663
11199	616
11200	552
11201	486
11202	434
11203	406
11204	401
11205	401
11206	386
11207	344
11208	279
11209	202
11210	135
11211	86
11212	58
11213	48
11214	47
11215	50
11216	54
11217	57
11218	60
11219	61
11220	62
11221	62
11222	62
11223	62
11224	63
11225	64
11226	66
11227	70
11228	75
11229	82
11230	91
11231	103
11232	115
11233	128
11234	140
11235	151
11236	159
11237	165
11238	169
11239	170
11240	168
11241	165
11242	160
11243	154
11244	148
11245	142
11246	136
11247	130
11248	126
11249	123
11250	120
11251	119
11252	118
11253	118
11254	118
11255	118
11256	117
11257	116
11258	114
11259	110
11260	105
11261	98
11262	89
11263	78
11264	65
11265	53
11266	40
11267	29
11268	20
11269	13
11270	8
11271	4
11272	2
11273	1
11274	0
11275	0
11276	0
11277	0
11278	0
11279	0
11280	0
11281	0
11282	0
11283	0
11284	0
11285	0
11286	0
11287	0
11288	0
11289	0
11290	0
11291	0
11292	0
11293	0
11294	0
11295	0
11296	0
11297	0
11298	0
11299	0
11300	0
11301	0
11302	0
11303	0
11304	0
11305	0
11306	0
11307	0
11308	0
11309	0
11310	0
11311	0
11312	0
11313	0
11314	0
11315	0
11316	0
11317	0
11318	0
11319	0
11320	0
11321	0
11322	0
11323	0
11324	0
11325	0
11326	0
11327	1
11328	1
11329	3
11330	5
11331	10
11332	16
11333	23
11334	31
11335	39
11336	45
11337	50
11338	52
11339	52
11340	52
11341	53
11342	56
11343	61
11344	69
11345	79
11346	90
11347	100
11348	108
11349	114
11350	118
11351	120
11352	121
11353	121
11354	121
11355	121
11356	121
11357	121
11358	121
11359	120
11360	119
11361	118
11362	116
11363	114
11364	116
11365	128
11366	159
11367	209
11368	274
11369	345
11370	401
11371	430
11372	437
11373	437
11374	449
11375	486
11376	550
11377	625
11378	696
11379	749
11380	782
11381	798
11382	805
11383	806
11384	806
11385	806
11386	806
11387	806
11388	806
11389	806
11390	806
11391	806
11392	806
11393	806
11394	805
11395	803
11396	795
11397	775
11398	737
11399	679
11400	607
11401	532
11402	474
11403	445
11404	438
11405	438
11406	425
11407	384
11408	314
11409	233
11410	155
11411	97
11412	61
11413	42
11414	37
11415	37
11416	38
11417	40
11418	41
11419	42
11420	43
11421	43
11422	43
11423	43
11424	43
11425	44
11426	46
11427	50
11428	54
11429	60
11430	67
11431	75
11432	83
11433	91
11434	99
11435	106
11436	111
11437	115
11438	117
11439	117
11440	116
11441	113
11442	110
11443	105
11444	101
11445	96
11446	92
11447	88
11448	85
11449	83
11450	82
11451	81
11452	81
11453	81
11454	81
11455	80
11456	80
11457	79
11458	77
11459	74
11460	69
11461	63
11462	56
11463	48
11464	40
11465	32
11466	24
11467	17
11468	11
11469	7
11470	3
11471	1
11472	0
11473	0
11474	0
11475	0
11476	0
11477	0
11478	0
11479	0
11480	0
11481	0
11482	0
11483	0
11484	0
11485	0
11486	0
11487	0
11488	0
11489	0
11490	0
11491	0
11492	0
11493	0
11494	0
11495	0
11496	0
11497	0
11498	0
11499	0
11500	0
11501	0
11502	0
11503	0
11504	0
11505	0
11506	0
11507	0
11508	0
11509	0
11510	0
11511	0
11512	0
11513	0
11514	0
11515	0
11516	0
11517	0
11518	0
11519	0
11520	0
11521	0
11522	0
11523	0
11524	0
11525	0
11526	0
11527	0
11528	0
11529	1
11530	2
11531	4
11532	6
11533	10
11534	13
11535	17
11536	20
11537	22
11538	23
11539	23
11540	23
11541	24
11542	25
11543	27
11544	31
11545	36
11546	41
11547	45
11548	49
11549	52
11550	54
11551	55
11552	56
11553	56
11554	56
11555	56
11556	56
11557	56
11558	56
11559	56
11560	56
11561	55
11562	55
11563	55
11564	61
11565	77
11566	110
11567	161
11568	227
11569	297
11570	351
11571	381
11572	388
11573	388
11574	402
11575	444
11576	516
11577	599
11578	678
11579	740
11580	779
11581	800
11582	809
11583	812
11584	813
11585	813
11586	813
11587	812
11588	812
11589	812
11590	812
11591	812
11592	812
11593	812
11594	812
11595	809
11596	801
11597	782
11598	746
11599	691
11600	622
11601	550
11602	495
11603	467
11604	462
11605	465
11606	456
11607	420
11608	356
11609	282
11610	214
11611	164
11612	137
11613	126
11614	126
11615	130
11616	134
11617	137
11618	139
11619	139
11620	140
11621	140
11622	140
11623	141
11624	143
11625	147
11626	153
11627	161
11628	172
11629	186
11630	201
11631	217
11632	235
11633	251
11634	266
11635	277
11636	284
11637	287
11638	284
11639	278
11640	268
11641	254
11642	238
11643	222
11644	206
11645	193
11646	182
11647	174
11648	168
11649	165
11650	164
11651	163
11652	163
11653	163
11654	163
11655	161
11656	159
11657	156
11658	150
11659	142
11660	130
11661	117
11662	101
11663	85
11664	67
11665	50
11666	35
11667	23
11668	14
11669	8
11670	4
11671	1
11672	0
11673	0
11674	0
11675	0
11676	0
11677	0
11678	0
11679	0
11680	0
11681	0
11682	0
11683	0
11684	0
11685	0
11686	0
11687	0
11688	0
11689	0
11690	0
11691	0
11692	0
11693	0
11694	0
11695	0
11696	0
11697	0
11698	0
11699	0
11700	0
11701	0
11702	0
11703	0
11704	0
11705	0
11706	0
11707	0
11708	0
11709	0
11710	0
11711	0
11712	0
11713	0
11714	0
11715	0
11716	0
11717	0
11718	0
11719	0
11720	0
11721	0
11722	0
11723	0
11724	0
11725	0
11726	0
11727	0
11728	0
11729	1
11730	2
11731	3
11732	5
11733	8
11734	11
11735	13
11736	15
11737	17
11738	17
11739	18
11740	18
11741	18
11742	20
11743	22
11744	25
11745	29
11746	33
11747	36
11748	38
11749	40
11750	41
11751	42
11752	42
11753	43
11754	43
11755	43
11756	43
11757	43
11758	43
11759	42
11760	42
11761	42
11762	41
11763	42
11764	48
11765	64
11766	92
11767	140
11768	201
11769	263
11770	310
11771	333
11772	336
11773	337
11774	355
11775	400
11776	472
11777	553
11778	624
11779	676
11780	708
11781	722
11782	727
11783	728
11784	728
11785	728
11786	728
11787	728
11788	728
11789	728
11790	728
11791	728
11792	728
11793	728
11794	728
11795	725
11796	717
11797	699
11798	667
11799	617
11800	554
11801	491
11802	444
11803	422
11804	419
11805	419
11806	403
11807	360
11808	291
11809	214
11810	147
11811	100
11812	75
11813	68
11814	70
11815	74
11816	79
11817	83
11818	85
11819	87
11820	87
11821	87
11822	87
11823	88
11824	89
11825	91
11826	96
11827	102
11828	111
11829	122
11830	135
11831	150
11832	165
11833	180
11834	195
11835	208
11836	218
11837	224
11838	227
11839	226
11840	222
11841	216
11842	209
11843	200
11844	191
11845	182
11846	174
11847	168
11848	163
11849	159
11850	157
11851	155
11852	155
11853	155
11854	155
11855	154
11856	153
11857	151
11858	147
11859	141
11860	132
11861	120
11862	108
11863	93
11864	78
11865	63
11866	48
11867	34
11868	23
11869	15
11870	9
11871	5
11872	3
11873	2
11874	1
11875	1
11876	1
11877	1
11878	1
11879	1
11880	1
11881	1
11882	1
11883	1
11884	1
11885	1
11886	1
11887	1
11888	1
11889	1
11890	1
11891	1
11892	1
11893	1
11894	1
11895	1
11896	1
11897	1
11898	1
11899	1
11900	1
11901	1
11902	1
11903	1
11904	1
11905	1
11906	1
11907	1
11908	1
11909	1
11910	1
11911	1
11912	1
11913	1
11914	1
11915	1
11916	0
11917	0
11918	0
11919	0
11920	0
11921	0
11922	0
11923	0
11924	0
11925	0
11926	0
11927	0
11928	0
11929	1
11930	1
11931	2
11932	4
11933	6
11934	8
11935	9
11936	11
11937	11
11938	12
11939	12
11940	12
11941	12
11942	13
11943	15
11944	17
11945	19
11946	22
11947	24
11948	25
11949	27
11950	27
11951	28
11952	28
11953	28
11954	28
11955	28
11956	28
11957	28
11958	28
11959	28
11960	28
11961	28
11962	28
11963	29
11964	36
11965	52
11966	84
11967	135
11968	197
11969	260
11970	307
11971	330
11972	333
11973	334
11974	354
11975	402
11976	475
11977	554
11978	624
11979	674
11980	703
11981	717
11982	721
11983	722
11984	722
11985	722
11986	722
11987	722
11988	722
11989	722
11990	722
11991	722
11992	722
11993	722
11994	721
11995	718
11996	710
11997	692
11998	658
11999	606
12000	542
12001	479
12002	432
12003	410
12004	407
12005	407
12006	388
12007	341
12008	271
12009	195
12010	129
12011	83
12012	60
12013	52
12014	53
12015	57
12016	61
12017	64
12018	66
12019	67
12020	68
12021	68
12022	68
12023	68
12024	69
12025	71
12026	74
12027	79
12028	86
12029	95
12030	107
12031	119
12032	133
12033	146
12034	159
12035	168
12036	176
12037	180
12038	182
12039	182
12040	179
12041	174
12042	168
12043	161
12044	154
12045	147
12046	141
12047	135
12048	131
12049	128
12050	126
12051	125
12052	124
12053	124
12054	124
12055	124
12056	123
12057	121
12058	118
12059	113
12060	106
12061	97
12062	86
12063	73
12064	60
12065	46
12066	33
12067	23
12068	15
12069	9
12070	5
12071	2
12072	1
12073	0
12074	0
12075	0
12076	0
12077	0
12078	0
12079	0
12080	0
12081	0
12082	0
12083	0
12084	0
12085	0
12086	0
12087	0
12088	0
12089	0
12090	0
12091	0
12092	0
12093	0
12094	0
12095	0
12096	0
12097	0
12098	0
12099	0
12100	0
12101	0
12102	0
12103	0
12104	0
12105	0
12106	0
12107	0
12108	0
12109	0
12110	0
12111	0
12112	0
12113	0
12114	0
12115	0
12116	0
12117	0
12118	0
12119	0
12120	0
12121	0
12122	0
12123	0
12124	0
12125	0
12126	0
12127	1
12128	2
12129	4
12130	7
12131	11
12132	18
12133	26
12134	34
12135	42
12136	48
12137	51
12138	53
12139	53
12140	53
12141	55
12142	59
12143	66
12144	76
12145	88
12146	99
12147	109
12148	117
12149	122
12150	126
12151	128
12152	129
12153	129
12154	129
12155	129
12156	129
12157	129
12158	129
12159	128
12160	127
12161	125
12162	123
12163	122
12164	126
12165	141
12166	173
12167	226
12168	292
12169	354
12170	398
12171	415
12172	416
12173	421
12174	447
12175	503
12176	574
12177	644
12178	699
12179	731
12180	746
12181	750
12182	749
12183	748
12184	747
12185	747
12186	747
12187	747
12188	747
12189	747
12190	747
12191	747
12192	747
12193	747
12194	746
12195	742
12196	732
12197	709
12198	669
12199	608
12200	536
12201	470
12202	425
12203	408
12204	407
12205	402
12206	374
12207	313
12208	235
12209	157
12210	96
12211	58
12212	39
12213	35
12214	35
12215	38
12216	40
12217	42
12218	42
12219	43
12220	43
12221	43
12222	43
12223	44
12224	44
12225	46
12226	48
12227	52
12228	57
12229	63
12230	70
12231	78
12232	86
12233	94
12234	102
12235	108
12236	113
12237	115
12238	116
12239	115
12240	113
12241	110
12242	105
12243	101
12244	97
12245	92
12246	88
12247	85
12248	83
12249	81
12250	80
12251	80
12252	80
12253	80
12254	79
12255	79
12256	78
12257	77
12258	74
12259	71
12260	66
12261	60
12262	53
12263	45
12264	37
12265	29
12266	21
12267	14
12268	9
12269	5
12270	3
12271	1
12272	0
12273	0
12274	0
12275	0
12276	0
12277	0
12278	0
12279	0
12280	0
12281	0
12282	0
12283	0
12284	0
12285	0
12286	0
12287	0
12288	0
12289	0
12290	0
12291	0
12292	0
12293	0
12294	0
12295	0
12296	0
12297	0
12298	0
12299	0
12300	0
12301	0
12302	0
12303	0
12304	0
12305	0
12306	0
12307	0
12308	0
12309	0
12310	0
12311	0
12312	0
12313	0
12314	0
12315	0
12316	0
12317	0
12318	0
12319	0
12320	0
12321	0
12322	0
12323	0
12324	0
12325	0
12326	0
12327	0
12328	0
12329	1
12330	3
12331	5
12332	9
12333	14
12334	18
12335	23
12336	26
12337	27
12338	28
12339	28
12340	28
12341	29
12342	31
12343	34
12344	39
12345	43
12346	48
12347	52
12348	55
12349	58
12350	59
12351	60
12352	60
12353	61
12354	61
12355	61
12356	61
12357	61
12358	61
12359	61
12360	60
12361	59
12362	60
12363	64
12364	78
12365	110
12366	169
12367	249
12368	340
12369	420
12370	469
12371	486
12372	486
12373	497
12374	543
12375	628
12376	736
12377	844
12378	930
12379	986
12380	1017
12381	1030
12382	1033
12383	1034
12384	1034
12385	1034
12386	1034
12387	1034
12388	1034
12389	1034
12390	1034
12391	1034
12392	1034
12393	1033
12394	1031
12395	1024
12396	1006
12397	970
12398	907
12399	823
12400	728
12401	647
12402	598
12403	583
12404	585
12405	578
12406	537
12407	459
12408	359
12409	261
12410	185
12411	139
12412	119
12413	115
12414	119
12415	124
12416	129
12417	131
12418	132
12419	132
12420	132
12421	133
12422	133
12423	135
12424	138
12425	143
12426	150
12427	160
12428	173
12429	186
12430	203
12431	221
12432	239
12433	255
12434	268
12435	278
12436	283
12437	284
12438	280
12439	271
12440	259
12441	246
12442	231
12443	216
12444	202
12445	191
12446	182
12447	175
12448	170
12449	168
12450	167
12451	166
12452	166
12453	166
12454	165
12455	164
12456	161
12457	156
12458	149
12459	138
12460	126
12461	112
12462	96
12463	78
12464	60
12465	43
12466	29
12467	18
12468	10
12469	5
12470	2
12471	0
12472	0
12473	0
12474	0
12475	0
12476	0
12477	0
12478	0
12479	0
12480	0
12481	0
12482	0
12483	0
12484	0
12485	0
12486	0
12487	0
12488	0
12489	0
12490	0
12491	0
12492	0
12493	0
12494	0
12495	0
12496	0
12497	0
12498	0
12499	0
12500	0
12501	0
12502	0
12503	0
12504	0
12505	0
12506	0
12507	0
12508	0
12509	0
12510	0
12511	0
12512	0
12513	0
12514	0
12515	0
12516	0
12517	0
12518	0
12519	0
12520	0
12521	0
12522	0
12523	0
12524	0
12525	0
12526	0
12527	0
12528	0
12529	0
12530	2
12531	4
12532	6
12533	9
12534	12
12535	15
12536	16
12537	17
12538	17
12539	17
12540	18
12541	19
12542	21
12543	24
12544	28
12545	31
12546	35
12547	38
12548	41
12549	42
12550	43
12551	44
12552	44
12553	44
12554	44
12555	44
12556	44
12557	44
12558	44
12559	44
12560	44
12561	43
12562	44
12563	48
12564	61
12565	88
12566	135
12567	198
12568	269
12569	326
12570	360
12571	370
12572	369
12573	381
12574	419
12575	485
12576	566
12577	643
12578	706
12579	745
12580	766
12581	774
12582	777
12583	778
12584	778
12585	778
12586	778
12587	778
12588	778
12589	778
12590	778
12591	778
12592	778
12593	778
12594	776
12595	769
12596	754
12597	724
12598	674
12599	608
12600	537
12601	479
12602	446
12603	436
12604	438
12605	428
12606	391
12607	327
12608	249
12609	176
12610	118
12611	85
12612	71
12613	69
12614	72
12615	77
12616	81
12617	84
12618	86
12619	86
12620	86
12621	86
12622	87
12623	87
12624	89
12625	92
12626	98
12627	105
12628	114
12629	125
12630	137
12631	151
12632	165
12633	178
12634	190
12635	201
12636	207
12637	211
12638	211
12639	208
12640	203
12641	196
12642	187
12643	178
12644	169
12645	161
12646	155
12647	148
12648	144
12649	142
12650	140
12651	140
12652	140
12653	140
12654	139
12655	139
12656	137
12657	134
12658	128
12659	121
12660	112
12661	101
12662	89
12663	75
12664	62
12665	48
12666	36
12667	24
12668	16
12669	10
12670	7
12671	4
12672	3
12673	2
12674	2
12675	1
12676	1
12677	1
12678	1
12679	1
12680	1
12681	1
12682	1
12683	1
12684	1
12685	1
12686	1
12687	1
12688	1
12689	1
12690	1
12691	1
12692	1
12693	1
12694	1
12695	1
12696	1
12697	1
12698	1
12699	1
12700	1
12701	1
12702	1
12703	1
12704	1
12705	1
12706	1
12707	1
12708	1
12709	1
12710	1
12711	1
12712	1
12713	1
12714	1
12715	0
12716	0
12717	0
12718	0
12719	0
12720	0
12721	0
12722	0
12723	0
12724	0
12725	0
12726	0
12727	0
12728	0
12729	1
12730	1
12731	3
12732	4
12733	6
12734	7
12735	9
12736	9
12737	10
12738	10
12739	10
12740	10
12741	11
12742	12
12743	14
12744	16
12745	18
12746	20
12747	22
12748	24
12749	25
12750	25
12751	25
12752	26
12753	26
12754	26
12755	26
12756	26
12757	26
12758	26
12759	25
12760	25
12761	25
12762	26
12763	31
12764	45
12765	72
12766	113
12767	166
12768	221
12769	263
12770	286
12771	290
12772	291
12773	302
12774	337
12775	393
12776	460
12777	521
12778	566
12779	594
12780	609
12781	616
12782	618
12783	618
12784	618
12785	618
12786	618
12787	618
12788	618
12789	618
12790	618
12791	618
12792	618
12793	617
12794	615
12795	609
12796	594
12797	566
12798	523
12799	468
12800	413
12801	370
12802	348
12803	344
12804	345
12805	334
12806	301
12807	248
12808	184
12809	127
12810	87
12811	65
12812	55
12813	54
12814	57
12815	61
12816	64
12817	66
12818	68
12819	69
12820	69
12821	69
12822	69
12823	70
12824	72
12825	75
12826	79
12827	85
12828	93
12829	103
12830	115
12831	127
12832	140
12833	152
12834	163
12835	171
12836	177
12837	180
12838	180
12839	178
12840	174
12841	168
12842	161
12843	153
12844	146
12845	140
12846	135
12847	130
12848	127
12849	125
12850	123
12851	122
12852	122
12853	122
12854	122
12855	122
12856	120
12857	117
12858	112
12859	106
12860	98
12861	88
12862	77
12863	64
12864	52
12865	39
12866	28
12867	19
12868	12
12869	7
12870	4
12871	2
12872	1
12873	0
12874	0
12875	0
12876	0
12877	0
12878	0
12879	0
12880	0
12881	0
12882	0
12883	0
12884	0
12885	0
12886	0
12887	0
12888	0
12889	0
12890	0
12891	0
12892	0
12893	0
12894	0
12895	0
12896	0
12897	0
12898	0
12899	0
12900	0
12901	0
12902	0
12903	0
12904	0
12905	0
12906	0
12907	0
12908	0
12909	0
12910	0
12911	0
12912	0
12913	0
12914	0
12915	0
12916	0
12917	0
12918	0
12919	0
12920	0
12921	0
12922	0
12923	0
12924	0
12925	0
12926	0
12927	1
12928	2
12929	5
12930	9
12931	15
12932	23
12933	31
12934	39
12935	46
12936	50
12937	52
12938	53
12939	53
12940	54
12941	57
12942	63
12943	72
12944	82
12945	94
12946	104
12947	112
12948	118
12949	121
12950	123
12951	124
12952	125
12953	125
12954	125
12955	125
12956	125
12957	125
12958	125
12959	124
12960	123
12961	122
12962	122
12963	124
12964	136
12965	164
12966	209
12967	268
12968	329
12969	377
12970	403
12971	409
12972	408
12973	419
12974	453
12975	510
12976	582
12977	645
12978	696
12979	728
12980	743
12981	748
12982	749
12983	749
12984	749
12985	748
12986	748
12987	748
12988	748
12989	748
12990	748
12991	748
12992	748
12993	747
12994	743
12995	734
12996	715
12997	679
12998	626
12999	560
13000	494
13001	444
13002	418
13003	412
13004	412
13005	400
13006	361
13007	297
13008	219
13009	148
13010	92
13011	56
13012	39
13013	34
13014	35
13015	37
13016	39
13017	40
13018	41
13019	41
13020	41
13021	41
13022	42
13023	42
13024	43
13025	45
13026	48
13027	53
13028	58
13029	65
13030	73
13031	82
13032	91
13033	99
13034	106
13035	112
13036	116
13037	118
13038	118
13039	117
13040	114
13041	111
13042	106
13043	102
13044	97
13045	93
13046	89
13047	86
13048	84
13049	83
13050	82
13051	82
13052	82
13053	82
13054	82
13055	81
13056	80
13057	78
13058	75
13059	70
13060	65
13061	58
13062	50
13063	41
13064	32
13065	24
13066	17
13067	11
13068	7
13069	3
13070	1
13071	0
13072	0
13073	0
13074	0
13075	0
13076	0
13077	0
13078	0
13079	0
13080	0
13081	0
13082	0
13083	0
13084	0
13085	0
13086	0
13087	0
13088	0
13089	0
13090	0
13091	0
13092	0
13093	0
13094	0
13095	0
13096	0
13097	0
13098	0
13099	0
13100	0
13101	0
13102	0
13103	0
13104	0
13105	0
13106	0
13107	0
13108	0
13109	0
13110	0
13111	0
13112	0
13113	0
13114	0
13115	0
13116	0
13117	0
13118	0
13119	0
13120	0
13121	0
13122	0
13123	0
13124	0
13125	0
13126	0
13127	0
13128	1
13129	2
13130	3
13131	6
13132	9
13133	13
13134	16
13135	19
13136	21
13137	22
13138	22
13139	22
13140	23
13141	24
13142	27
13143	32
13144	36
13145	42
13146	46
13147	50
13148	52
13149	54
13150	56
13151	56
13152	56
13153	56
13154	57
13155	57
13156	57
13157	57
13158	57
13159	56
13160	56
13161	55
13162	57
13163	64
13164	84
13165	123
13166	185
13167	270
13168	356
13169	424
13170	462
13171	471
13172	471
13173	489
13174	544
13175	634
13176	738
13177	838
13178	912
13179	958
13180	982
13181	991
13182	993
13183	994
13184	994
13185	994
13186	994
13187	994
13188	994
13189	994
13190	994
13191	994
13192	994
13193	993
13194	990
13195	980
13196	957
13197	914
13198	848
13199	761
13200	673
13201	605
13202	568
13203	561
13204	564
13205	550
13206	502
13207	419
13208	324
13209	234
13210	171
13211	136
13212	122
13213	121
13214	125
13215	129
13216	132
13217	134
13218	134
13219	134
13220	134
13221	135
13222	136
13223	139
13224	143
13225	150
13226	160
13227	173
13228	188
13229	204
13230	222
13231	240
13232	256
13233	271
13234	282
13235	289
13236	291
13237	289
13238	282
13239	271
13240	258
13241	243
13242	228
13243	213
13244	200
13245	190
13246	182
13247	177
13248	174
13249	172
13250	172
13251	171
13252	171
13253	171
13254	170
13255	167
13256	163
13257	156
13258	146
13259	133
13260	118
13261	102
13262	84
13263	66
13264	49
13265	34
13266	22
13267	13
13268	6
13269	3
13270	1
13271	0
13272	0
13273	0
13274	0
13275	0
13276	0
13277	0
13278	0
13279	0
13280	0
13281	0
13282	0
13283	0
13284	0
13285	0
13286	0
13287	0
13288	0
13289	0
13290	0
13291	0
13292	0
13293	0
13294	0
13295	0
13296	0
13297	0
13298	0
13299	0
13300	0
13301	0
13302	0
13303	0
13304	0
13305	0
13306	0
13307	0
13308	0
13309	0
13310	0
13311	0
13312	0
13313	0
13314	0
13315	0
13316	0
13317	0
13318	0
13319	0
13320	0
13321	0
13322	0
13323	0
13324	0
13325	0
13326	0
13327	0
13328	0
13329	2
13330	3
13331	6
13332	8
13333	11
13334	14
13335	17
13336	18
13337	19
13338	19
13339	19
13340	20
13341	21
13342	24
13343	28
13344	33
13345	37
13346	41
13347	44
13348	46
13349	47
13350	47
13351	47
13352	48
13353	48
13354	48
13355	48
13356	48
13357	48
13358	47
13359	47
13360	47
13361	46
13362	48
13363	54
13364	73
13365	108
13366	163
13367	232
13368	300
13369	349
13370	372
13371	375
13372	377
13373	400
13374	455
13375	536
13376	622
13377	696
13378	750
13379	781
13380	795
13381	799
13382	800
13383	800
13384	800
13385	800
13386	800
13387	800
13388	800
13389	800
13390	800
13391	800
13392	799
13393	799
13394	796
13395	787
13396	766
13397	727
13398	670
13399	598
13400	529
13401	479
13402	457
13403	455
13404	454
13405	433
13406	379
13407	301
13408	217
13409	147
13410	98
13411	73
13412	67
13413	70
13414	74
13415	79
13416	82
13417	85
13418	86
13419	87
13420	87
13421	87
13422	87
13423	88
13424	91
13425	95
13426	101
13427	109
13428	119
13429	131
13430	145
13431	160
13432	175
13433	188
13434	200
13435	209
13436	215
13437	218
13438	217
13439	214
13440	208
13441	201
13442	193
13443	184
13444	175
13445	167
13446	161
13447	157
13448	153
13449	150
13450	149
13451	148
13452	148
13453	148
13454	148
13455	147
13456	144
13457	141
13458	135
13459	127
13460	117
13461	104
13462	90
13463	75
13464	60
13465	47
13466	34
13467	24
13468	16
13469	10
13470	6
13471	4
13472	2
13473	2
13474	1
13475	1
13476	1
13477	1
13478	0
13479	0
13480	0
13481	0
13482	0
13483	0
13484	0
13485	0
13486	1
13487	1
13488	1
13489	1
13490	1
13491	1
13492	1
13493	2
13494	2
13495	2
13496	2
13497	2
13498	2
13499	2
13500	2
13501	2
13502	2
13503	2
13504	2
13505	2
13506	2
13507	2
13508	2
13509	2
13510	2
13511	2
13512	2
13513	1
13514	1
13515	1
13516	1
13517	1
13518	1
13519	1
13520	1
13521	1
13522	0
13523	0
13524	0
13525	0
13526	0
13527	0
13528	0
13529	1
13530	2
13531	4
13532	6
13533	8
13534	10
13535	11
13536	12
13537	12
13538	12
13539	12
13540	13
13541	14
13542	16
13543	18
13544	21
13545	23
13546	26
13547	28
13548	29
13549	30
13550	31
13551	31
13552	31
13553	31
13554	31
13555	31
13556	31
13557	31
13558	31
13559	31
13560	31
13561	31
13562	34
13563	43
13564	66
13565	107
13566	165
13567	233
13568	295
13569	338
13570	354
13571	355
13572	360
13573	391
13574	453
13575	532
13576	614
13577	680
13578	723
13579	745
13580	755
13581	758
13582	759
13583	758
13584	758
13585	758
13586	758
13587	758
13588	758
13589	758
13590	758
13591	758
13592	758
13593	757
13594	753
13595	742
13596	717
13597	674
13598	614
13599	545
13600	482
13601	439
13602	423
13603	424
13604	419
13605	390
13606	330
13607	253
13608	175
13609	112
13610	74
13611	57
13612	52
13613	55
13614	59
13615	63
13616	66
13617	68
13618	69
13619	70
13620	70
13621	70
13622	70
13623	72
13624	74
13625	78
13626	83
13627	91
13628	100
13629	112
13630	124
13631	136
13632	150
13633	162
13634	172
13635	179
13636	183
13637	185
13638	183
13639	180
13640	174
13641	169
13642	162
13643	155
13644	148
13645	141
13646	136
13647	132
13648	129
13649	127
13650	126
13651	125
13652	125
13653	125
13654	125
13655	123
13656	121
13657	117
13658	112
13659	104
13660	95
13661	83
13662	71
13663	58
13664	45
13665	32
13666	22
13667	14
13668	8
13669	4
13670	2
13671	1
13672	0
13673	0
13674	0
13675	0
13676	0
13677	0
13678	0
13679	0
13680	0
13681	0
13682	0
13683	0
13684	0
13685	0
13686	0
13687	0
13688	0
13689	0
13690	0
13691	0
13692	0
13693	0
13694	0
13695	0
13696	0
13697	0
13698	0
13699	0
13700	0
13701	0
13702	0
13703	0
13704	0
13705	0
13706	0
13707	0
13708	0
13709	0
13710	0
13711	0
13712	0
13713	0
13714	0
13715	0
13716	0
13717	0
13718	0
13719	0
13720	0
13721	0
13722	0
13723	0
13724	0
13725	0
13726	1
13727	2
13728	3
13729	7
13730	11
13731	17
13732	24
13733	31
13734	37
13735	42
13736	44
13737	44
13738	44
13739	45
13740	47
13741	51
13742	58
13743	66
13744	75
13745	83
13746	90
13747	95
13748	98
13749	101
13750	102
13751	103
13752	103
13753	103
13754	103
13755	103
13756	103
13757	103
13758	102
13759	101
13760	100
13761	98
13762	99
13763	106
13764	128
13765	168
13766	225
13767	290
13768	346
13769	379
13770	389
13771	388
13772	398
13773	431
13774	491
13775	565
13776	631
13777	683
13778	714
13779	730
13780	736
13781	737
13782	736
13783	736
13784	736
13785	736
13786	736
13787	736
13788	736
13789	736
13790	736
13791	736
13792	736
13793	734
13794	729
13795	715
13796	687
13797	639
13798	576
13799	507
13800	450
13801	416
13802	406
13803	407
13804	397
13805	360
13806	296
13807	219
13808	148
13809	92
13810	59
13811	44
13812	39
13813	40
13814	43
13815	45
13816	47
13817	48
13818	49
13819	49
13820	49
13821	49
13822	50
13823	51
13824	53
13825	56
13826	60
13827	66
13828	73
13829	82
13830	91
13831	101
13832	111
13833	120
13834	128
13835	133
13836	136
13837	138
13838	137
13839	134
13840	130
13841	125
13842	120
13843	115
13844	111
13845	106
13846	102
13847	100
13848	98
13849	97
13850	96
13851	96
13852	96
13853	96
13854	95
13855	94
13856	92
13857	89
13858	85
13859	78
13860	71
13861	62
13862	53
13863	43
13864	33
13865	24
13866	16
13867	10
13868	6
13869	3
13870	1
13871	0
13872	0
13873	0
13874	0
13875	0
13876	0
13877	0
13878	0
13879	0
13880	0
13881	0
13882	0
13883	0
13884	0
13885	0
13886	0
13887	0
13888	0
13889	0
13890	0
13891	0
13892	0
13893	0
13894	0
13895	0
13896	0
13897	0
13898	0
13899	0
13900	0
13901	0
13902	0
13903	0
13904	0
13905	0
13906	0
13907	0
13908	0
13909	0
13910	0
13911	0
13912	0
13913	0
13914	0
13915	0
13916	0
13917	0
13918	0
13919	0
13920	0
13921	0
13922	0
13923	0
13924	0
13925	0
13926	0
13927	0
13928	1
13929	3
13930	5
13931	8
13932	12
13933	16
13934	19
13935	21
13936	23
13937	23
13938	23
13939	24
13940	25
13941	27
13942	31
13943	36
13944	41
13945	46
13946	50
13947	54
13948	56
13949	57
13950	57
13951	57
13952	58
13953	58
13954	58
13955	58
13956	58
13957	57
13958	57
13959	57
13960	57
13961	57
13962	61
13963	74
13964	102
13965	151
13966	217
13967	286
13968	345
13969	381
13970	391
13971	391
13972	404
13973	444
13974	515
13975	605
13976	694
13977	767
13978	815
13979	842
13980	854
13981	857
13982	858
13983	858
13984	858
13985	858
13986	858
13987	858
13988	858
13989	858
13990	858
13991	858
13992	857
13993	855
13994	849
13995	833
13996	801
13997	748
13998	679
13999	608
14000	547
14001	512
14002	503
14003	505
14004	494
14005	455
14006	385
14007	297
14008	211
14009	140
14010	97
14011	75
14012	68
14013	70
14014	73
14015	76
14016	78
14017	79
14018	79
14019	79
14020	80
14021	80
14022	82
14023	85
14024	89
14025	95
14026	103
14027	112
14028	122
14029	132
14030	142
14031	151
14032	159
14033	164
14034	169
14035	170
14036	170
14037	168
14038	163
14039	157
14040	150
14041	142
14042	133
14043	125
14044	118
14045	112
14046	107
14047	104
14048	102
14049	101
14050	101
14051	101
14052	101
14053	100
14054	99
14055	96
14056	91
14057	85
14058	77
14059	68
14060	58
14061	48
14062	38
14063	29
14064	21
14065	14
14066	9
14067	5
14068	3
14069	1
14070	1
14071	0
14072	0
14073	0
14074	0
14075	0
14076	0
14077	0
14078	0
14079	0
14080	0
14081	0
14082	0
14083	0
14084	0
14085	0
14086	0
14087	0
14088	0
14089	0
14090	0
14091	0
14092	0
14093	0
14094	0
14095	0
14096	0
14097	0
14098	0
14099	0
14100	0
14101	0
14102	0
14103	0
14104	0
14105	0
14106	0
14107	0
14108	0
14109	0
14110	0
14111	0
14112	0
14113	0
14114	0
14115	0
14116	0
14117	0
14118	0
14119	0
14120	0
14121	0
14122	0
14123	0
14124	0
14125	0
14126	0
14127	0
14128	1
14129	2
14130	4
14131	7
14132	10
14133	14
14134	17
14135	19
14136	21
14137	21
14138	21
14139	22
14140	23
14141	25
14142	28
14143	32
14144	37
14145	41
14146	45
14147	48
14148	50
14149	51
14150	52
14151	52
14152	52
14153	52
14154	52
14155	52
14156	52
14157	52
14158	52
14159	52
14160	52
14161	52
14162	56
14163	70
14164	99
14165	145
14166	208
14167	278
14168	337
14169	372
14170	382
14171	382
14172	393
14173	432
14174	501
14175	588
14176	671
14177	735
14178	779
14179	802
14180	812
14181	814
14182	814
14183	814
14184	814
14185	814
14186	814
14187	814
14188	814
14189	814
14190	814
14191	814
14192	814
14193	812
14194	805
14195	789
14196	757
14197	707
14198	641
14199	569
14200	509
14201	473
14202	464
14203	467
14204	458
14205	424
14206	360
14207	279
14208	204
14209	148
14210	115
14211	102
14212	104
14213	112
14214	120
14215	127
14216	133
14217	136
14218	138
14219	139
14220	139
14221	139
14222	140
14223	142
14224	146
14225	154
14226	165
14227	182
14228	203
14229	227
14230	255
14231	285
14232	313
14233	339
14234	359
14235	373
14236	380
14237	381
14238	377
14239	369
14240	358
14241	344
14242	330
14243	317
14244	303
14245	292
14246	283
14247	276
14248	271
14249	267
14250	265
14251	264
14252	264
14253	265
14254	264
14255	263
14256	259
14257	251
14258	240
14259	224
14260	203
14261	179
14262	151
14263	122
14264	94
14265	68
14266	47
14267	31
14268	19
14269	13
14270	8
14271	6
14272	5
14273	5
14274	5
14275	5
14276	5
14277	5
14278	5
14279	5
14280	5
14281	5
14282	5
14283	5
14284	4
14285	4
14286	4
14287	4
14288	3
14289	3
14290	2
14291	2
14292	1
14293	1
14294	1
14295	1
14296	0
14297	0
14298	0
14299	0
14300	0
14301	0
14302	0
14303	0
14304	0
14305	0
14306	0
14307	0
14308	0
14309	0
14310	0
14311	0
14312	0
14313	0
14314	0
14315	0
14316	0
14317	0
14318	0
14319	0
14320	0
14321	0
14322	0
14323	0
14324	0
14325	0
14326	0
14327	1
14328	1
14329	3
14330	4
14331	6
14332	9
14333	11
14334	13
14335	15
14336	15
14337	16
14338	16
14339	16
14340	17
14341	19
14342	22
14343	26
14344	29
14345	33
14346	36
14347	38
14348	39
14349	39
14350	40
14351	40
14352	40
14353	40
14354	40
14355	40
14356	40
14357	40
14358	40
14359	39
14360	39
14361	40
14362	44
14363	56
14364	82
14365	124
14366	180
14367	239
14368	288
14369	318
14370	326
14371	326
14372	337
14373	374
14374	437
14375	514
14376	585
14377	640
14378	673
14379	691
14380	697
14381	699
14382	699
14383	699
14384	699
14385	699
14386	699
14387	699
14388	699
14389	699
14390	699
14391	699
14392	699
14393	697
14394	691
14395	677
14396	649
14397	604
14398	546
14399	486
14400	436
14401	406
14402	399
14403	400
14404	390
14405	356
14406	294
14407	219
14408	151
14409	101
14410	73
14411	62
14412	61
14413	64
14414	69
14415	73
14416	75
14417	77
14418	77
14419	78
14420	78
14421	78
14422	78
14423	80
14424	83
14425	88
14426	95
14427	104
14428	116
14429	129
14430	143
14431	157
14432	170
14433	182
14434	192
14435	198
14436	201
14437	200
14438	198
14439	193
14440	186
14441	178
14442	170
14443	162
14444	155
14445	149
14446	144
14447	140
14448	138
14449	136
14450	136
14451	135
14452	136
14453	135
14454	135
14455	133
14456	130
14457	125
14458	118
